# Created by:        SpecsLab Prodigy, Version 4.60.2-r85849 
#
# XY-Serializer Export Settings:
#   Comment Prefix:           #
#   Output meta data:         yes
#   Energy Axis:              Binding Energy
#   Count Rate:               Counts per Second
#   Separate Scan Data:       no
#   Separate Channel Data:    no
#   External Channel Data:    yes
#   Transmission Function:    no
#   ErrorBar:                 no
#   Operation Results:        yes
#   Time Zone Format:         UTC
#
# Group:             Spectrum Group
#
# Region:            overview
# Acquisition Date:  04/21/22 10:58:29 UTC
# Analysis Method:   XPS
# Analyzer:          Phoibos 100 R6
# Analyzer Lens:     MediumArea:1.5kV
# Analyzer Slit:     1:0.2x20\B:open
# Scan Mode:         FixedAnalyzerTransmission
# Curves/Scan:       1
# Values/Curve:      1205
# Dwell Time:        0.2
# Excitation Energy: 1486.61
# Binding Energy:    1200
# Pass Energy:       50
# Bias Voltage:      90
# Detector Voltage:  2600
# Eff. Workfunction: 4.309
# Source:            X-Ray Dummy
# Comment:           
#
# Cycle: 0
# Number of Scans: 1
#
# Cycle: 0, Curve: 0
# Acquisition Date: 04/21/22 10:58:29 UTC
#
# ColumnLabels: energy counts/s
#
1200  2600
1199  2610
1198  2765
1197  2695
1196  2645
1195  2615
1194  2670
1193  2600
1192  2810
1191  2535
1190  2475
1189  2535
1188  2625
1187  2510
1186  2480
1185  2525
1184  2685
1183  2555
1182  2710
1181  2525
1180  2465
1179  2360
1178  2650
1177  2495
1176  2510
1175  2465
1174  2655
1173  2575
1172  2520
1171  2500
1170  2305
1169  2435
1168  2495
1167  2295
1166  2775
1165  2265
1164  2535
1163  2540
1162  2525
1161  2395
1160  2315
1159  2540
1158  2450
1157  2420
1156  2530
1155  2355
1154  2240
1153  2505
1152  2395
1151  2545
1150  2445
1149  2390
1148  2535
1147  2500
1146  2430
1145  2245
1144  2495
1143  2490
1142  2455
1141  2445
1140  2420
1139  2405
1138  2355
1137  2615
1136  2455
1135  2595
1134  2505
1133  2345
1132  2410
1131  2230
1130  2475
1129  2395
1128  2385
1127  2370
1126  2380
1125  2300
1124  2605
1123  2710
1122  2370
1121  2490
1120  2205
1119  2175
1118  2460
1117  2230
1116  2175
1115  2490
1114  2365
1113  2375
1112  2180
1111  2185
1110  2520
1109  2360
1108  2210
1107  2420
1106  2385
1105  2510
1104  2270
1103  2280
1102  2180
1101  2260
1100  2230
1099  2085
1098  2280
1097  2375
1096  2320
1095  2210
1094  2340
1093  2330
1092  1995
1091  2405
1090  2300
1089  2240
1088  2300
1087  2440
1086  2250
1085  2110
1084  2205
1083  2250
1082  2185
1081  2215
1080  2285
1079  2265
1078  2225
1077  2445
1076  2360
1075  2445
1074  2640
1073  2420
1072  2460
1071  2355
1070  2110
1069  2150
1068  2155
1067  2300
1066  2200
1065  2315
1064  2190
1063  2360
1062  2435
1061  2210
1060  2265
1059  2295
1058  2255
1057  2200
1056  2415
1055  2275
1054  2240
1053  2220
1052  2220
1051  2160
1050  2200
1049  2090
1048  2195
1047  2260
1046  2020
1045  2220
1044  2245
1043  2205
1042  2065
1041  2290
1040  2145
1039  2330
1038  2135
1037  2140
1036  2210
1035  2145
1034  2120
1033  2200
1032  2205
1031  2165
1030  2140
1029  2200
1028  2070
1027  2135
1026  2165
1025  2195
1024  2070
1023  2145
1022  2210
1021  2095
1020  2210
1019  2335
1018  2145
1017  2190
1016  2295
1015  2030
1014  2125
1013  2280
1012  2170
1011  2355
1010  2160
1009  2170
1008  2330
1007  2180
1006  2300
1005  2345
1004  2275
1003  2355
1002  2245
1001  2290
1000  2065
999  2060
998  2050
997  2315
996  2040
995  2020
994  1875
993  1855
992  1865
991  1855
990  1835
989  1945
988  1820
987  2090
986  2105
985  2140
984  2140
983  2380
982  2170
981  2365
980  2570
979  1990
978  1875
977  2055
976  1855
975  1605
974  1575
973  1495
972  1725
971  1640
970  1400
969  1545
968  1340
967  1470
966  1320
965  1325
964  1365
963  1360
962  1370
961  1250
960  1220
959  1305
958  1255
957  1310
956  1330
955  1330
954  1430
953  1450
952  1430
951  1200
950  1340
949  1315
948  1475
947  1340
946  1365
945  1335
944  1465
943  1365
942  1285
941  1355
940  1235
939  1405
938  1345
937  1305
936  1365
935  1135
934  1385
933  1330
932  1370
931  1405
930  1445
929  1425
928  1445
927  1225
926  1180
925  1335
924  1425
923  1430
922  1350
921  1395
920  1205
919  1355
918  1280
917  1370
916  1285
915  1515
914  1310
913  1330
912  1460
911  1310
910  1295
909  1325
908  1260
907  1290
906  1430
905  1290
904  1170
903  1365
902  1295
901  1335
900  1490
899  1290
898  1220
897  1455
896  1275
895  1245
894  1310
893  1410
892  1310
891  1340
890  1280
889  1435
888  1240
887  1255
886  1525
885  1330
884  1440
883  1255
882  1285
881  1315
880  1280
879  1350
878  1435
877  1280
876  1430
875  1545
874  1370
873  1210
872  1330
871  1260
870  1490
869  1340
868  1310
867  1290
866  1305
865  1420
864  1425
863  1435
862  1395
861  1280
860  1290
859  1390
858  1345
857  1465
856  1350
855  1420
854  1330
853  1305
852  1420
851  1390
850  1485
849  1400
848  1325
847  1325
846  1425
845  1540
844  1340
843  1355
842  1455
841  1385
840  1305
839  1355
838  1285
837  1425
836  1355
835  1275
834  1300
833  1315
832  1315
831  1275
830  1410
829  1205
828  1415
827  1340
826  1305
825  1310
824  1320
823  1380
822  1180
821  1375
820  1380
819  1340
818  1235
817  1425
816  1530
815  1355
814  1585
813  1425
812  1315
811  1480
810  1370
809  1495
808  1370
807  1280
806  1450
805  1510
804  1400
803  1225
802  1225
801  1305
800  1380
799  1285
798  1290
797  1415
796  1470
795  1160
794  1365
793  1410
792  1400
791  1335
790  1210
789  1330
788  1375
787  1320
786  1470
785  1405
784  1545
783  1325
782  1485
781  1320
780  1375
779  1480
778  1465
777  1430
776  1540
775  1150
774  1245
773  1415
772  1445
771  1430
770  1505
769  1425
768  1460
767  1355
766  1365
765  1410
764  1370
763  1515
762  1510
761  1380
760  1400
759  1415
758  1280
757  1490
756  1595
755  1320
754  1465
753  1485
752  1450
751  1515
750  1400
749  1405
748  1460
747  1410
746  1450
745  1405
744  1440
743  1510
742  1370
741  1485
740  1540
739  1520
738  1490
737  1410
736  1515
735  1610
734  1500
733  1550
732  1440
731  1325
730  1515
729  1265
728  1490
727  1405
726  1515
725  1450
724  1515
723  1535
722  1420
721  1465
720  1525
719  1450
718  1525
717  1290
716  1385
715  1425
714  1485
713  1490
712  1450
711  1645
710  1500
709  1490
708  1560
707  1485
706  1490
705  1500
704  1520
703  1400
702  1600
701  1410
700  1465
699  1515
698  1360
697  1335
696  1620
695  1310
694  1705
693  1525
692  1565
691  1540
690  1465
689  1655
688  1685
687  1570
686  1530
685  1505
684  1650
683  1540
682  1560
681  1655
680  1540
679  1710
678  1570
677  1630
676  1595
675  1465
674  1665
673  1535
672  1665
671  1595
670  1575
669  1555
668  1665
667  1475
666  1575
665  1600
664  1630
663  1670
662  1725
661  1595
660  1450
659  1560
658  1670
657  1540
656  1380
655  1580
654  1670
653  1655
652  1620
651  1615
650  1550
649  1640
648  1630
647  1580
646  1635
645  1605
644  1670
643  1625
642  1560
641  1610
640  1755
639  1640
638  1750
637  1805
636  1620
635  1585
634  1775
633  1615
632  1665
631  1720
630  1640
629  1550
628  1645
627  1665
626  1580
625  1640
624  1735
623  1640
622  1875
621  1615
620  1650
619  1580
618  1705
617  1760
616  1615
615  1745
614  1800
613  1755
612  1665
611  1745
610  1780
609  1895
608  1805
607  1680
606  1655
605  1765
604  1860
603  1685
602  1690
601  1790
600  1705
599  1760
598  1920
597  1775
596  1810
595  1815
594  1830
593  1725
592  1655
591  1795
590  1920
589  1820
588  1745
587  1760
586  1755
585  1835
584  1955
583  1675
582  1895
581  1675
580  1790
579  1655
578  1920
577  1765
576  1720
575  1885
574  1765
573  1740
572  1655
571  1750
570  1815
569  1750
568  1645
567  1835
566  1920
565  1875
564  1810
563  1960
562  1930
561  1910
560  1910
559  2040
558  2060
557  1920
556  1850
555  1795
554  1705
553  1725
552  1620
551  1570
550  1540
549  1670
548  1335
547  1440
546  1390
545  1105
544  990
543  1140
542  975
541  1090
540  1120
539  1225
538  1395
537  2605
536  5805
535  7495
534  4765
533  1960
532  1230
531  1035
530  970
529  935
528  880
527  980
526  1235
525  1210
524  1170
523  1045
522  980
521  805
520  835
519  795
518  755
517  925
516  735
515  875
514  935
513  755
512  765
511  730
510  805
509  760
508  710
507  795
506  690
505  635
504  830
503  770
502  695
501  825
500  795
499  920
498  745
497  690
496  870
495  800
494  810
493  725
492  775
491  765
490  700
489  765
488  700
487  775
486  670
485  690
484  760
483  685
482  805
481  805
480  685
479  725
478  735
477  705
476  645
475  730
474  780
473  900
472  735
471  740
470  735
469  650
468  870
467  835
466  700
465  735
464  840
463  790
462  730
461  855
460  620
459  680
458  695
457  710
456  700
455  810
454  720
453  770
452  725
451  655
450  785
449  820
448  810
447  665
446  730
445  790
444  730
443  730
442  745
441  665
440  760
439  730
438  740
437  705
436  710
435  825
434  700
433  805
432  725
431  645
430  745
429  700
428  815
427  775
426  810
425  805
424  895
423  670
422  730
421  765
420  815
419  650
418  750
417  690
416  775
415  725
414  690
413  785
412  795
411  735
410  715
409  805
408  705
407  635
406  735
405  805
404  715
403  850
402  830
401  830
400  825
399  760
398  680
397  665
396  715
395  750
394  800
393  710
392  795
391  640
390  760
389  765
388  835
387  765
386  750
385  770
384  735
383  755
382  835
381  710
380  840
379  815
378  770
377  730
376  760
375  835
374  795
373  760
372  810
371  740
370  775
369  725
368  770
367  810
366  710
365  840
364  760
363  855
362  765
361  740
360  755
359  835
358  815
357  900
356  725
355  760
354  740
353  935
352  765
351  790
350  760
349  930
348  755
347  740
346  850
345  820
344  775
343  860
342  710
341  940
340  735
339  900
338  785
337  850
336  820
335  830
334  875
333  735
332  805
331  840
330  805
329  960
328  785
327  855
326  860
325  725
324  700
323  870
322  835
321  935
320  860
319  765
318  800
317  895
316  900
315  935
314  910
313  885
312  735
311  765
310  775
309  930
308  855
307  925
306  860
305  910
304  760
303  795
302  725
301  770
300  945
299  785
298  820
297  775
296  740
295  790
294  845
293  860
292  935
291  1110
290  1195
289  1330
288  1890
287  1715
286  1205
285  870
284  850
283  830
282  900
281  745
280  770
279  1015
278  850
277  875
276  860
275  820
274  915
273  740
272  900
271  780
270  830
269  820
268  755
267  825
266  685
265  810
264  910
263  770
262  780
261  790
260  810
259  780
258  700
257  695
256  795
255  755
254  830
253  795
252  775
251  755
250  685
249  900
248  850
247  770
246  815
245  815
244  695
243  695
242  850
241  675
240  810
239  750
238  875
237  765
236  820
235  775
234  860
233  745
232  730
231  720
230  770
229  675
228  855
227  715
226  875
225  745
224  800
223  815
222  825
221  870
220  760
219  700
218  820
217  755
216  795
215  725
214  770
213  750
212  795
211  625
210  800
209  845
208  810
207  855
206  820
205  810
204  655
203  785
202  790
201  820
200  860
199  740
198  900
197  880
196  710
195  775
194  815
193  720
192  760
191  805
190  765
189  820
188  880
187  875
186  860
185  845
184  940
183  860
182  835
181  960
180  880
179  925
178  765
177  825
176  825
175  770
174  875
173  880
172  870
171  710
170  735
169  750
168  665
167  815
166  655
165  630
164  600
163  690
162  760
161  770
160  825
159  1040
158  1305
157  1800
156  1500
155  1075
154  820
153  875
152  625
151  745
150  645
149  640
148  735
147  650
146  745
145  625
144  690
143  585
142  670
141  545
140  640
139  610
138  625
137  555
136  580
135  595
134  610
133  580
132  575
131  650
130  705
129  685
128  665
127  740
126  680
125  680
124  625
123  620
122  620
121  640
120  510
119  495
118  470
117  485
116  520
115  525
114  480
113  510
112  480
111  450
110  520
109  510
108  745
107  1340
106  1885
105  1350
104  755
103  500
102  520
101  320
100  470
99  420
98  400
97  500
96  530
95  565
94  480
93  445
92  410
91  390
90  420
89  490
88  455
87  545
86  505
85  400
84  460
83  430
82  455
81  375
80  385
79  390
78  440
77  405
76  485
75  360
74  540
73  485
72  370
71  380
70  400
69  350
68  420
67  325
66  475
65  400
64  455
63  440
62  385
61  440
60  550
59  450
58  440
57  495
56  420
55  440
54  395
53  385
52  475
51  390
50  500
49  420
48  410
47  415
46  490
45  475
44  460
43  435
42  500
41  465
40  410
39  500
38  500
37  395
36  510
35  505
34  420
33  440
32  435
31  525
30  510
29  560
28  570
27  600
26  575
25  370
24  350
23  440
22  450
21  380
20  390
19  480
18  410
17  430
16  460
15  370
14  385
13  430
12  405
11  425
10  370
9  410
8  425
7  325
6  405
5  390
4  375
3  350
2  380
1  345
-2.2737368e-013  380
-1  290
-2  380
-3  370
-4  330

# Region:            Ba3d
# Acquisition Date:  04/21/22 11:47:39 UTC
# Analysis Method:   XPS
# Analyzer:          Phoibos 100 R6
# Analyzer Lens:     LargeArea:1.5kV
# Analyzer Slit:     1:0.2x20\B:open
# Scan Mode:         FixedAnalyzerTransmission
# Curves/Scan:       1
# Values/Curve:      121
# Dwell Time:        0.8
# Excitation Energy: 1486.61
# Binding Energy:    789
# Pass Energy:       30
# Bias Voltage:      90
# Detector Voltage:  2600
# Eff. Workfunction: 4.309
# Source:            X-Ray Dummy
# Comment:           
#
# Cycle: 0
# Number of Scans: 4
#
# Cycle: 0, Curve: 0
# Acquisition Date: 04/21/22 11:47:39 UTC
#
# ColumnLabels: energy counts/s
#
789  1770.3125
788.9  1751.25
788.8  1755.9375
788.7  1785.625
788.6  1769.375
788.5  1790.625
788.4  1752.5
788.3  1702.5
788.2  1747.5
788.1  1731.875
788  1777.8125
787.9  1745.625
787.8  1728.125
787.7  1742.8125
787.6  1749.6875
787.5  1748.125
787.4  1726.875
787.3  1748.125
787.2  1771.25
787.1  1760.625
787  1721.5625
786.9  1739.375
786.8  1741.25
786.7  1730.625
786.6  1705.3125
786.5  1760.9375
786.4  1730
786.3  1784.6875
786.2  1770.9375
786.1  1770.3125
786  1770.9375
785.9  1740.625
785.8  1799.0625
785.7  1731.5625
785.6  1720.3125
785.5  1747.1875
785.4  1770.625
785.3  1768.75
785.2  1750
785.1  1700.3125
785  1756.5625
784.9  1712.8125
784.8  1742.5
784.7  1702.1875
784.6  1730.3125
784.5  1723.125
784.4  1779.6875
784.3  1781.25
784.2  1740.9375
784.1  1775.3125
784  1771.25
783.9  1725.3125
783.8  1748.75
783.7  1726.875
783.6  1734.0625
783.5  1728.4375
783.4  1760
783.3  1760.625
783.2  1756.5625
783.1  1784.375
783  1784.375
782.9  1742.1875
782.8  1770
782.7  1797.5
782.6  1742.5
782.5  1739.0625
782.4  1714.375
782.3  1738.75
782.2  1719.6875
782.1  1771.5625
782  1749.0625
781.9  1715.625
781.8  1751.5625
781.7  1782.5
781.6  1765.3125
781.5  1728.75
781.4  1744.6875
781.3  1760.9375
781.2  1739.6875
781.1  1761.875
781  1732.1875
780.9  1727.1875
780.8  1739.0625
780.7  1807.5
780.6  1735.9375
780.5  1746.5625
780.4  1736.875
780.3  1702.8125
780.2  1734.375
780.1  1745
780  1752.5
779.9  1724.6875
779.8  1761.5625
779.7  1721.5625
779.6  1768.4375
779.5  1744.6875
779.4  1735
779.3  1786.5625
779.2  1803.125
779.1  1752.8125
779  1750.625
778.9  1789.375
778.8  1761.875
778.7  1772.8125
778.6  1773.125
778.5  1725.9375
778.4  1769.375
778.3  1794.6875
778.2  1732.5
778.1  1777.5
778  1715
777.9  1705
777.8  1732.1875
777.7  1728.125
777.6  1695.625
777.5  1752.8125
777.4  1743.75
777.3  1799.6875
777.2  1701.875
777.1  1775.9375
777  1700.9375

# Region:            C1s (2)
# Acquisition Date:  04/21/22 12:18:31 UTC
# Analysis Method:   XPS
# Analyzer:          Phoibos 100 R6
# Analyzer Lens:     LargeArea:1.5kV
# Analyzer Slit:     1:0.2x20\B:open
# Scan Mode:         FixedAnalyzerTransmission
# Curves/Scan:       1
# Values/Curve:      151
# Dwell Time:        0.8
# Excitation Energy: 1486.61
# Binding Energy:    295
# Pass Energy:       30
# Bias Voltage:      90
# Detector Voltage:  2600
# Eff. Workfunction: 4.309
# Source:            X-Ray Dummy
# Comment:           
#
# Cycle: 0
# Number of Scans: 7
#
# Cycle: 0, Curve: 0
# Acquisition Date: 04/21/22 12:18:31 UTC
#
# ColumnLabels: energy counts/s
#
295  608.39286
294.9  615.71429
294.8  623.21429
294.7  609.28571
294.6  608.03571
294.5  635.53571
294.4  625.71429
294.3  601.96429
294.2  633.03571
294.1  630.17857
294  643.75
293.9  615.17857
293.8  622.67857
293.7  628.03571
293.6  627.14286
293.5  637.5
293.4  626.78571
293.3  624.10714
293.2  606.42857
293.1  632.5
293  648.03571
292.9  636.42857
292.8  644.46429
292.7  635.35714
292.6  641.07143
292.5  643.92857
292.4  629.28571
292.3  659.28571
292.2  659.10714
292.1  667.67857
292  668.75
291.9  688.03571
291.8  682.14286
291.7  670.71429
291.6  697.85714
291.5  699.10714
291.4  686.42857
291.3  719.46429
291.2  724.64286
291.1  720.53571
291  735
290.9  739.82143
290.8  747.14286
290.7  770.17857
290.6  787.85714
290.5  770.17857
290.4  798.03571
290.3  800.35714
290.2  803.75
290.1  831.60714
290  841.42857
289.9  872.14286
289.8  871.07143
289.7  906.25
289.6  901.42857
289.5  959.10714
289.4  939.64286
289.3  982.32143
289.2  1011.7857
289.1  1024.6429
289  1072.8571
288.9  1115
288.8  1121.4286
288.7  1140.8929
288.6  1154.8214
288.5  1173.75
288.4  1215.3571
288.3  1241.4286
288.2  1258.0357
288.1  1298.75
288  1289.4643
287.9  1356.25
287.8  1363.5714
287.7  1372.5
287.6  1381.7857
287.5  1376.0714
287.4  1347.6786
287.3  1366.25
287.2  1346.4286
287.1  1299.2857
287  1259.4643
286.9  1223.75
286.8  1176.7857
286.7  1123.2143
286.6  1058.0357
286.5  1007.6786
286.4  954.64286
286.3  919.28571
286.2  863.92857
286.1  825.71429
286  801.42857
285.9  771.25
285.8  736.78571
285.7  705.53571
285.6  655.71429
285.5  676.78571
285.4  651.78571
285.3  653.75
285.2  629.46429
285.1  614.28571
285  629.28571
284.9  614.64286
284.8  613.57143
284.7  609.28571
284.6  585.35714
284.5  613.75
284.4  578.39286
284.3  606.07143
284.2  587.14286
284.1  580.53571
284  578.92857
283.9  586.60714
283.8  575.89286
283.7  594.64286
283.6  592.85714
283.5  574.82143
283.4  587.67857
283.3  593.75
283.2  555.53571
283.1  576.07143
283  582.67857
282.9  575
282.8  559.46429
282.7  593.39286
282.6  592.14286
282.5  567.67857
282.4  579.10714
282.3  577.67857
282.2  582.14286
282.1  604.10714
282  602.5
281.9  582.32143
281.8  582.14286
281.7  585.53571
281.6  589.28571
281.5  593.39286
281.4  573.75
281.3  595.53571
281.2  613.39286
281.1  592.67857
281  586.42857
280.9  580
280.8  573.57143
280.7  595.53571
280.6  573.75
280.5  584.10714
280.4  593.03571
280.3  590.71429
280.2  598.21429
280.1  579.10714
280  572.14286

# Region:            O1s
# Acquisition Date:  04/21/22 12:42:10 UTC
# Analysis Method:   XPS
# Analyzer:          Phoibos 100 R6
# Analyzer Lens:     LargeArea:1.5kV
# Analyzer Slit:     1:0.2x20\B:open
# Scan Mode:         FixedAnalyzerTransmission
# Curves/Scan:       1
# Values/Curve:      141
# Dwell Time:        0.8
# Excitation Energy: 1486.61
# Binding Energy:    541
# Pass Energy:       30
# Bias Voltage:      90
# Detector Voltage:  2600
# Eff. Workfunction: 4.309
# Source:            X-Ray Dummy
# Comment:           
#
# Cycle: 0
# Number of Scans: 10
#
# Cycle: 0, Curve: 0
# Acquisition Date: 04/21/22 12:42:10 UTC
#
# ColumnLabels: energy counts/s
#
541  951.5
540.9  930.125
540.8  958.5
540.7  964
540.6  950.125
540.5  957
540.4  958
540.3  973.25
540.2  963.625
540.1  964.5
540  977.125
539.9  1004.375
539.8  992.375
539.7  994.875
539.6  1014.625
539.5  991.625
539.4  1041.25
539.3  1050.625
539.2  1045.875
539.1  1054.875
539  1047.5
538.9  1071.5
538.8  1090.125
538.7  1118.625
538.6  1126.5
538.5  1129.625
538.4  1137.125
538.3  1149.25
538.2  1205.75
538.1  1195.625
538  1214.625
537.9  1255.75
537.8  1321.625
537.7  1335.875
537.6  1375.25
537.5  1471.375
537.4  1565.875
537.3  1654.125
537.2  1729.5
537.1  1916.5
537  2049
536.9  2230
536.8  2467.125
536.7  2713.375
536.6  3003.5
536.5  3310.5
536.4  3623.75
536.3  4070.875
536.2  4405.5
536.1  4825.875
536  5239.625
535.9  5672.125
535.8  6028.375
535.7  6424
535.6  6795.125
535.5  7063.875
535.4  7302.875
535.3  7418
535.2  7472.125
535.1  7433.5
535  7431.375
534.9  7129.375
534.8  6866.25
534.7  6546
534.6  6182.625
534.5  5691
534.4  5297
534.3  4840.5
534.2  4427.125
534.1  3969.25
534  3575.375
533.9  3251.125
533.8  2931.875
533.7  2579.5
533.6  2386.625
533.5  2184.25
533.4  1987.875
533.3  1778.5
533.2  1678.875
533.1  1579.125
533  1448.75
532.9  1379.875
532.8  1277
532.7  1232.875
532.6  1211.25
532.5  1139.125
532.4  1095
532.3  1079.375
532.2  1046.125
532.1  1008.875
532  967.875
531.9  977.125
531.8  961.875
531.7  941
531.6  940.125
531.5  923.375
531.4  911.75
531.3  893.875
531.2  895.875
531.1  875.125
531  855.5
530.9  882.125
530.8  847.5
530.7  871.375
530.6  847.375
530.5  833.875
530.4  846.5
530.3  828.875
530.2  854.625
530.1  825.875
530  826.125
529.9  832
529.8  861.25
529.7  836.125
529.6  836.125
529.5  834
529.4  831.5
529.3  834.125
529.2  833
529.1  818
529  817.75
528.9  811.625
528.8  788.125
528.7  800.625
528.6  813.5
528.5  814.375
528.4  814.5
528.3  810.75
528.2  806
528.1  800.75
528  807.375
527.9  810.75
527.8  803
527.7  812.625
527.6  829.875
527.5  833.125
527.4  830.75
527.3  831.125
527.2  856.875
527.1  861.75
527  892.625

# Region:            N1s (3)
# Acquisition Date:  04/21/22 11:05:43 UTC
# Analysis Method:   XPS
# Analyzer:          Phoibos 100 R6
# Analyzer Lens:     LargeArea:1.5kV
# Analyzer Slit:     1:0.2x20\B:open
# Scan Mode:         FixedAnalyzerTransmission
# Curves/Scan:       1
# Values/Curve:      101
# Dwell Time:        0.8
# Excitation Energy: 1486.61
# Binding Energy:    405
# Pass Energy:       30
# Bias Voltage:      90
# Detector Voltage:  2600
# Eff. Workfunction: 4.309
# Source:            X-Ray Dummy
# Comment:           
#
# Cycle: 0
# Number of Scans: 1
#
# Cycle: 0, Curve: 0
# Acquisition Date: 04/21/22 11:05:43 UTC
#
# ColumnLabels: energy counts/s
#
405  572.5
404.9  640
404.8  615
404.7  656.25
404.6  668.75
404.5  627.5
404.4  662.5
404.3  681.25
404.2  671.25
404.1  626.25
404  650
403.9  662.5
403.8  695
403.7  680
403.6  663.75
403.5  710
403.4  707.5
403.3  711.25
403.2  727.5
403.1  673.75
403  700
402.9  701.25
402.8  723.75
402.7  737.5
402.6  716.25
402.5  735
402.4  712.5
402.3  683.75
402.2  765
402.1  737.5
402  751.25
401.9  711.25
401.8  715
401.7  702.5
401.6  708.75
401.5  675
401.4  711.25
401.3  688.75
401.2  675
401.1  638.75
401  628.75
400.9  637.5
400.8  631.25
400.7  605
400.6  612.5
400.5  607.5
400.4  640
400.3  618.75
400.2  636.25
400.1  623.75
400  641.25
399.9  683.75
399.8  668.75
399.7  607.5
399.6  638.75
399.5  601.25
399.4  563.75
399.3  620
399.2  650
399.1  603.75
399  612.5
398.9  585
398.8  595
398.7  603.75
398.6  621.25
398.5  592.5
398.4  590
398.3  545
398.2  590
398.1  626.25
398  607.5
397.9  633.75
397.8  567.5
397.7  578.75
397.6  623.75
397.5  565
397.4  610
397.3  660
397.2  606.25
397.1  606.25
397  572.5
396.9  656.25
396.8  607.5
396.7  641.25
396.6  637.5
396.5  577.5
396.4  633.75
396.3  612.5
396.2  540
396.1  591.25
396  566.25
395.9  651.25
395.8  591.25
395.7  607.5
395.6  573.75
395.5  592.5
395.4  610
395.3  596.25
395.2  647.5
395.1  553.75
395  626.25

# Region:            Cl2p
# Acquisition Date:  04/21/22 12:06:45 UTC
# Analysis Method:   XPS
# Analyzer:          Phoibos 100 R6
# Analyzer Lens:     LargeArea:1.5kV
# Analyzer Slit:     1:0.2x20\B:open
# Scan Mode:         FixedAnalyzerTransmission
# Curves/Scan:       1
# Values/Curve:      111
# Dwell Time:        0.8
# Excitation Energy: 1486.61
# Binding Energy:    207
# Pass Energy:       30
# Bias Voltage:      90
# Detector Voltage:  2600
# Eff. Workfunction: 4.309
# Source:            X-Ray Dummy
# Comment:           
#
# Cycle: 0
# Number of Scans: 5
#
# Cycle: 0, Curve: 0
# Acquisition Date: 04/21/22 12:06:45 UTC
#
# ColumnLabels: energy counts/s
#
207  570.25
206.9  572.75
206.8  542
206.7  572.5
206.6  572.25
206.5  554.5
206.4  554.5
206.3  555.25
206.2  567.25
206.1  538.25
206  556.75
205.9  554.5
205.8  566
205.7  557.5
205.6  559
205.5  565.5
205.4  574
205.3  553.5
205.2  546
205.1  580.75
205  550.75
204.9  594
204.8  534.25
204.7  551.5
204.6  587
204.5  546.5
204.4  568.5
204.3  578.25
204.2  559.5
204.1  567.5
204  539.25
203.9  565.75
203.8  580.5
203.7  573.25
203.6  554.5
203.5  554
203.4  555
203.3  566.25
203.2  555.5
203.1  576.25
203  578.75
202.9  558
202.8  575.25
202.7  595.5
202.6  571.75
202.5  552.25
202.4  545.75
202.3  557
202.2  559.25
202.1  563.25
202  562.75
201.9  562.25
201.8  576.5
201.7  562
201.6  560.5
201.5  553.25
201.4  571.75
201.3  572.25
201.2  562.25
201.1  573.25
201  566.25
200.9  551.25
200.8  572
200.7  565.5
200.6  562
200.5  568.75
200.4  579
200.3  580
200.2  579.5
200.1  559.75
200  557
199.9  571.5
199.8  564
199.7  564
199.6  559.25
199.5  574.25
199.4  610
199.3  563.25
199.2  567
199.1  558
199  584.25
198.9  571.5
198.8  566.5
198.7  569.75
198.6  582.25
198.5  562
198.4  543.25
198.3  561.5
198.2  564.5
198.1  573.75
198  531.5
197.9  577.5
197.8  584
197.7  561.5
197.6  565
197.5  549.5
197.4  562
197.3  568.5
197.2  547.25
197.1  559.5
197  587.75
196.9  569.75
196.8  561.5
196.7  588.75
196.6  548.75
196.5  581.5
196.4  576.5
196.3  592.75
196.2  575
196.1  591
196  554.25

# Region:            Si2p (2)
# Acquisition Date:  04/21/22 11:58:25 UTC
# Analysis Method:   XPS
# Analyzer:          Phoibos 100 R6
# Analyzer Lens:     LargeArea:1.5kV
# Analyzer Slit:     1:0.2x20\B:open
# Scan Mode:         FixedAnalyzerTransmission
# Curves/Scan:       1
# Values/Curve:      391
# Dwell Time:        0.8
# Excitation Energy: 1486.61
# Binding Energy:    128
# Pass Energy:       30
# Bias Voltage:      90
# Detector Voltage:  2600
# Eff. Workfunction: 4.309
# Source:            X-Ray Dummy
# Comment:           
#
# Cycle: 0
# Number of Scans: 4
#
# Cycle: 0, Curve: 0
# Acquisition Date: 04/21/22 11:58:25 UTC
#
# ColumnLabels: energy counts/s
#
128  467.5
127.9  445.9375
127.8  450
127.7  468.75
127.6  463.75
127.5  444.6875
127.4  459.6875
127.3  447.1875
127.2  463.75
127.1  456.875
127  441.875
126.9  430.3125
126.8  446.5625
126.7  445.3125
126.6  443.4375
126.5  461.25
126.4  432.8125
126.3  451.5625
126.2  441.25
126.1  458.75
126  429.0625
125.9  435.9375
125.8  442.8125
125.7  443.125
125.6  459.6875
125.5  433.125
125.4  430
125.3  440.9375
125.2  435.9375
125.1  422.5
125  413.4375
124.9  433.4375
124.8  443.4375
124.7  427.8125
124.6  439.6875
124.5  428.125
124.4  418.125
124.3  423.4375
124.2  446.25
124.1  411.875
124  430.3125
123.9  415.625
123.8  439.375
123.7  417.8125
123.6  418.75
123.5  404.375
123.4  412.5
123.3  414.375
123.2  432.1875
123.1  995.9375
123  395.625
122.9  421.875
122.8  414.375
122.7  424.375
122.6  414.0625
122.5  399.6875
122.4  403.4375
122.3  406.25
122.2  412.5
122.1  414.0625
122  425.9375
121.9  403.75
121.8  401.5625
121.7  415.9375
121.6  406.875
121.5  415.3125
121.4  411.5625
121.3  400
121.2  419.0625
121.1  427.8125
121  397.5
120.9  406.5625
120.8  401.25
120.7  400.625
120.6  384.6875
120.5  398.4375
120.4  404.6875
120.3  380.9375
120.2  378.75
120.1  399.375
120  377.8125
119.9  390
119.8  387.8125
119.7  368.4375
119.6  387.8125
119.5  392.1875
119.4  394.6875
119.3  366.875
119.2  371.875
119.1  387.1875
119  370.9375
118.9  378.75
118.8  400.9375
118.7  355.625
118.6  392.8125
118.5  369.6875
118.4  384.375
118.3  377.5
118.2  364.6875
118.1  377.8125
118  379.6875
117.9  353.125
117.8  367.5
117.7  357.5
117.6  357.1875
117.5  377.8125
117.4  357.8125
117.3  354.0625
117.2  372.8125
117.1  348.125
117  360.3125
116.9  352.8125
116.8  363.4375
116.7  348.4375
116.6  379.6875
116.5  356.25
116.4  356.875
116.3  352.1875
116.2  346.5625
116.1  345.3125
116  332.5
115.9  335.9375
115.8  345.625
115.7  329.375
115.6  320.9375
115.5  335.625
115.4  343.125
115.3  336.25
115.2  330.625
115.1  344.375
115  325.625
114.9  329.6875
114.8  313.125
114.7  326.25
114.6  330.3125
114.5  311.875
114.4  330.9375
114.3  316.25
114.2  340
114.1  321.25
114  321.5625
113.9  325.3125
113.8  320.3125
113.7  325.625
113.6  312.1875
113.5  314.375
113.4  325.3125
113.3  333.4375
113.2  330
113.1  301.5625
113  325.3125
112.9  315.9375
112.8  321.5625
112.7  307.5
112.6  313.125
112.5  318.125
112.4  331.875
112.3  322.5
112.2  330.9375
112.1  350
112  332.8125
111.9  336.875
111.8  315.9375
111.7  325.625
111.6  335.9375
111.5  313.125
111.4  336.25
111.3  330.9375
111.2  328.4375
111.1  319.375
111  340
110.9  326.5625
110.8  316.5625
110.7  315.3125
110.6  315.9375
110.5  328.75
110.4  344.6875
110.3  336.25
110.2  314.375
110.1  321.875
110  349.0625
109.9  342.5
109.8  343.75
109.7  335
109.6  345.3125
109.5  322.5
109.4  341.5625
109.3  332.1875
109.2  345.625
109.1  339.375
109  352.5
108.9  336.875
108.8  360.3125
108.7  363.4375
108.6  369.6875
108.5  370.625
108.4  383.4375
108.3  393.4375
108.2  392.8125
108.1  408.4375
108  415
107.9  453.75
107.8  436.25
107.7  501.5625
107.6  535.3125
107.5  559.375
107.4  612.1875
107.3  654.0625
107.2  693.75
107.1  753.75
107  809.6875
106.9  899.375
106.8  948.4375
106.7  982.8125
106.6  1068.125
106.5  1097.1875
106.4  1165
106.3  1214.0625
106.2  1200.3125
106.1  1255
106  1288.125
105.9  1293.4375
105.8  1320.3125
105.7  1284.375
105.6  1237.8125
105.5  1170.3125
105.4  1142.1875
105.3  1026.25
105.2  973.125
105.1  925.625
105  855.9375
104.9  795
104.8  737.1875
104.7  659.0625
104.6  611.25
104.5  575.625
104.4  508.4375
104.3  470
104.2  459.0625
104.1  435
104  420.9375
103.9  395
103.8  378.4375
103.7  370.625
103.6  359.0625
103.5  346.25
103.4  370.9375
103.3  346.25
103.2  329.6875
103.1  336.5625
103  340.625
102.9  339.6875
102.8  317.8125
102.7  325.625
102.6  333.75
102.5  300.625
102.4  323.75
102.3  310.625
102.2  343.125
102.1  311.25
102  317.1875
101.9  315
101.8  314.6875
101.7  307.5
101.6  314.0625
101.5  338.75
101.4  334.0625
101.3  310.625
101.2  300.9375
101.1  309.375
101  324.0625
100.9  305.625
100.8  313.125
100.7  322.8125
100.6  309.0625
100.5  297.5
100.4  308.125
100.3  321.875
100.2  314.6875
100.1  295.9375
100  330.3125
99.9  304.375
99.8  316.5625
99.7  315.625
99.6  312.8125
99.5  320
99.4  306.25
99.3  310.9375
99.2  320.625
99.1  311.5625
99  303.125
98.9  307.1875
98.8  309.0625
98.7  310.625
98.6  284.0625
98.5  1257.5
98.4  298.125
98.3  307.8125
98.2  304.375
98.1  310
98  320.3125
97.9  325.625
97.8  320.3125
97.7  303.4375
97.6  331.25
97.5  323.75
97.4  347.5
97.3  335.3125
97.2  336.25
97.1  351.5625
97  354.6875
96.9  365
96.8  362.1875
96.7  365.625
96.6  353.125
96.5  357.1875
96.4  366.25
96.3  388.125
96.2  377.1875
96.1  367.1875
96  373.75
95.9  358.125
95.8  361.875
95.7  356.875
95.6  357.1875
95.5  355.9375
95.4  362.1875
95.3  356.5625
95.2  343.75
95.1  349.0625
95  348.4375
94.9  351.875
94.8  350.9375
94.7  357.1875
94.6  334.375
94.5  355.3125
94.4  339.6875
94.3  337.1875
94.2  355
94.1  345.9375
94  332.8125
93.9  330.3125
93.8  358.125
93.7  330
93.6  339.375
93.5  331.5625
93.4  325.3125
93.3  308.75
93.2  319.0625
93.1  299.6875
93  310.625
92.9  294.375
92.8  316.25
92.7  307.8125
92.6  305
92.5  305.625
92.4  306.5625
92.3  311.875
92.2  315.3125
92.1  308.125
92  312.8125
91.9  314.375
91.8  310.3125
91.7  312.8125
91.6  293.75
91.5  310.625
91.4  309.375
91.3  298.75
91.2  300.9375
91.1  292.1875
91  301.5625
90.9  307.1875
90.8  279.6875
90.7  297.1875
90.6  297.5
90.5  299.0625
90.4  296.5625
90.3  297.8125
90.2  296.25
90.1  315
90  292.5
89.9  293.4375
89.8  310
89.7  317.8125
89.6  305
89.5  286.5625
89.4  304.6875
89.3  305.625
89.2  303.125
89.1  304.375
89  278.125

# Region:            N1s
# Acquisition Date:  04/21/22 15:47:23 UTC
# Analysis Method:   XPS
# Analyzer:          Phoibos 100 R6
# Analyzer Lens:     LargeArea:1.5kV
# Analyzer Slit:     1:0.2x20\B:open
# Scan Mode:         FixedAnalyzerTransmission
# Curves/Scan:       1
# Values/Curve:      101
# Dwell Time:        0.8
# Excitation Energy: 1486.61
# Binding Energy:    407
# Pass Energy:       30
# Bias Voltage:      90
# Detector Voltage:  2600
# Eff. Workfunction: 4.309
# Source:            X-Ray Dummy
# Comment:           
#
# Cycle: 0
# Number of Scans: 100
#
# Cycle: 0, Curve: 0
# Acquisition Date: 04/21/22 15:47:23 UTC
#
# ColumnLabels: energy counts/s
#
407  614.85
406.9  618.5625
406.8  619.5625
406.7  614.1625
406.6  620.5
406.5  623.825
406.4  613.9875
406.3  619.9875
406.2  616.525
406.1  614.15
406  615.5375
405.9  618.625
405.8  618.75
405.7  620.0875
405.6  616.8875
405.5  622.85
405.4  622.3
405.3  620.9
405.2  620.8
405.1  619.9125
405  625.55
404.9  628.825
404.8  633.625
404.7  630.7375
404.6  634.8
404.5  637.8
404.4  639.6875
404.3  644.525
404.2  647.9125
404.1  647.775
404  655.65
403.9  678.3625
403.8  668.825
403.7  671.75
403.6  681.9875
403.5  684.475
403.4  712.825
403.3  703.1625
403.2  702.35
403.1  710.625
403  717.3
402.9  722.15
402.8  726.9125
402.7  726.6375
402.6  727.5375
402.5  728.5375
402.4  731.1
402.3  730.3875
402.2  732.7375
402.1  727.8875
402  725.075
401.9  717.35
401.8  719.075
401.7  710.4625
401.6  703.525
401.5  699.8375
401.4  697.65
401.3  684.725
401.2  682.225
401.1  681.3625
401  668.925
400.9  665.1
400.8  656.85
400.7  648.8875
400.6  643.775
400.5  642.025
400.4  631.8375
400.3  627.825
400.2  623.85
400.1  615.9375
400  623.6875
399.9  617.625
399.8  617.4375
399.7  615.375
399.6  609.2125
399.5  609.625
399.4  612.8125
399.3  606.1625
399.2  612.85
399.1  609.3125
399  609.1625
398.9  609.6125
398.8  604.125
398.7  603.5375
398.6  606.7375
398.5  607.8875
398.4  604.4625
398.3  602.5625
398.2  601.8875
398.1  601.5375
398  605.1875
397.9  606.4875
397.8  609.9875
397.7  602.0875
397.6  604.5125
397.5  645.4
397.4  605.4
397.3  602.825
397.2  603.05
397.1  602.525
397  608.275

# Region:            Si2p
# Acquisition Date:  04/21/22 13:11:43 UTC
# Analysis Method:   XPS
# Analyzer:          Phoibos 100 R6
# Analyzer Lens:     LargeArea:1.5kV
# Analyzer Slit:     1:0.2x20\B:open
# Scan Mode:         FixedAnalyzerTransmission
# Curves/Scan:       1
# Values/Curve:      111
# Dwell Time:        0.8
# Excitation Energy: 1486.61
# Binding Energy:    110
# Pass Energy:       30
# Bias Voltage:      90
# Detector Voltage:  2600
# Eff. Workfunction: 4.309
# Source:            X-Ray Dummy
# Comment:           
#
# Cycle: 0
# Number of Scans: 15
#
# Cycle: 0, Curve: 0
# Acquisition Date: 04/21/22 13:11:43 UTC
#
# ColumnLabels: energy counts/s
#
110  330
109.9  445.41667
109.8  334.41667
109.7  338.41667
109.6  347.33333
109.5  344
109.4  341
109.3  344.33333
109.2  345.75
109.1  340.16667
109  356.75
108.9  360.91667
108.8  365.75
108.7  361.08333
108.6  363.58333
108.5  375.91667
108.4  378.83333
108.3  387.5
108.2  393.66667
108.1  415.33333
108  418.16667
107.9  445.83333
107.8  459.08333
107.7  495.58333
107.6  508.58333
107.5  555.91667
107.4  597.5
107.3  633.66667
107.2  690.33333
107.1  729.91667
107  778.25
106.9  836.83333
106.8  906.16667
106.7  961.16667
106.6  1054.9167
106.5  1087.4167
106.4  1150.1667
106.3  1201.0833
106.2  1246.3333
106.1  1271.6667
106  1281.5
105.9  1281.75
105.8  1295.0833
105.7  1279.0833
105.6  1260.1667
105.5  1212.4167
105.4  1162.0833
105.3  1084.5
105.2  1019.9167
105.1  954.41667
105  895.91667
104.9  840.25
104.8  776.08333
104.7  688.41667
104.6  635.5
104.5  593.41667
104.4  543.66667
104.3  506.66667
104.2  467.25
104.1  456.25
104  422.75
103.9  407.83333
103.8  394.83333
103.7  378
103.6  365.58333
103.5  350
103.4  347.91667
103.3  343.91667
103.2  326.41667
103.1  329.91667
103  324.16667
102.9  325.83333
102.8  340.83333
102.7  322.91667
102.6  317.75
102.5  326.25
102.4  320.08333
102.3  315.16667
102.2  321.08333
102.1  323.16667
102  308.33333
101.9  311.5
101.8  302.33333
101.7  321.33333
101.6  312.41667
101.5  304.66667
101.4  311.16667
101.3  313.75
101.2  316.25
101.1  310.08333
101  320.16667
100.9  296.16667
100.8  312.41667
100.7  322.08333
100.6  309.16667
100.5  300.91667
100.4  318.58333
100.3  305.75
100.2  311.41667
100.1  309.91667
100  318.25
99.9  306
99.8  316.41667
99.7  576.41667
99.6  311.08333
99.5  311
99.4  304.83333
99.3  305.58333
99.2  311.66667
99.1  305.16667
99  300.16667

# Region:            C1s
# Acquisition Date:  04/21/22 14:11:34 UTC
# Analysis Method:   XPS
# Analyzer:          Phoibos 100 R6
# Analyzer Lens:     LargeArea:1.5kV
# Analyzer Slit:     1:0.2x20\B:open
# Scan Mode:         FixedAnalyzerTransmission
# Curves/Scan:       1
# Values/Curve:      181
# Dwell Time:        0.8
# Excitation Energy: 1486.61
# Binding Energy:    298
# Pass Energy:       30
# Bias Voltage:      90
# Detector Voltage:  2600
# Eff. Workfunction: 4.309
# Source:            X-Ray Dummy
# Comment:           
#
# Cycle: 0
# Number of Scans: 24
#
# Cycle: 0, Curve: 0
# Acquisition Date: 04/21/22 14:11:34 UTC
#
# ColumnLabels: energy counts/s
#
298  613.95833
297.9  608.38542
297.8  618.22917
297.7  603.59375
297.6  613.59375
297.5  610.57292
297.4  614.47917
297.3  600.52083
297.2  609.84375
297.1  612.03125
297  622.34375
296.9  612.76042
296.8  610.52083
296.7  617.08333
296.6  614.6875
296.5  606.14583
296.4  614.47917
296.3  620.78125
296.2  615.98958
296.1  620.88542
296  611.97917
295.9  617.08333
295.8  608.75
295.7  622.65625
295.6  620.41667
295.5  691.66667
295.4  619.89583
295.3  614.32292
295.2  610.625
295.1  618.75
295  607.5
294.9  612.5
294.8  605.83333
294.7  611.04167
294.6  607.08333
294.5  607.5
294.4  621.14583
294.3  614.89583
294.2  622.60417
294.1  623.59375
294  619.58333
293.9  612.60417
293.8  613.64583
293.7  616.30208
293.6  619.63542
293.5  621.45833
293.4  636.82292
293.3  618.64583
293.2  624.53125
293.1  627.76042
293  630.3125
292.9  625.625
292.8  630.05208
292.7  639.42708
292.6  639.42708
292.5  631.61458
292.4  635.52083
292.3  658.80208
292.2  655.26042
292.1  651.40625
292  668.125
291.9  659.375
291.8  670.05208
291.7  676.82292
291.6  687.60417
291.5  690
291.4  696.66667
291.3  707.1875
291.2  702.8125
291.1  713.64583
291  731.71875
290.9  727.44792
290.8  742.13542
290.7  754.79167
290.6  774.27083
290.5  762.60417
290.4  776.61458
290.3  790.3125
290.2  798.90625
290.1  814.0625
290  816.09375
289.9  843.02083
289.8  859.21875
289.7  866.97917
289.6  901.77083
289.5  927.8125
289.4  942.96875
289.3  951.25
289.2  997.5
289.1  1035.6771
289  1021.6146
288.9  1054.8958
288.8  1101.25
288.7  1117.1354
288.6  1150.2604
288.5  1161.0417
288.4  1208.3333
288.3  1225.3646
288.2  1245.4688
288.1  1275
288  1311.4063
287.9  1319.0104
287.8  1331.1458
287.7  1352.6042
287.6  1364.8438
287.5  1378.75
287.4  1358.125
287.3  1374.0104
287.2  1348.9583
287.1  1332.8125
287  1268.2292
286.9  1237.9167
286.8  1230.6771
286.7  1154.1667
286.6  1089.2708
286.5  1019.6354
286.4  985.67708
286.3  950.26042
286.2  892.03125
286.1  839.27083
286  810.10417
285.9  765.83333
285.8  741.40625
285.7  710.83333
285.6  698.4375
285.5  671.35417
285.4  657.65625
285.3  643.90625
285.2  640.26042
285.1  630.72917
285  616.66667
284.9  612.91667
284.8  611.51042
284.7  598.69792
284.6  591.97917
284.5  600.41667
284.4  586.14583
284.3  586.30208
284.2  582.65625
284.1  579.84375
284  583.95833
283.9  586.25
283.8  580.57292
283.7  579.58333
283.6  580.26042
283.5  582.1875
283.4  586.30208
283.3  586.61458
283.2  578.95833
283.1  583.64583
283  572.8125
282.9  579.89583
282.8  580.83333
282.7  590.10417
282.6  581.51042
282.5  577.96875
282.4  577.23958
282.3  580.05208
282.2  583.28125
282.1  587.13542
282  583.54167
281.9  582.70833
281.8  589.58333
281.7  593.64583
281.6  592.65625
281.5  580.9375
281.4  588.59375
281.3  593.22917
281.2  583.4375
281.1  594.21875
281  590.67708
280.9  588.28125
280.8  618.75
280.7  581.14583
280.6  591.51042
280.5  593.38542
280.4  596.09375
280.3  586.82292
280.2  586.61458
280.1  583.125
280  587.5

