# Created by:        SpecsLab Prodigy, Version 4.60.2-r85849 
#
# XY-Serializer Export Settings:
#   Comment Prefix:           #
#   Output meta data:         yes
#   Energy Axis:              Binding Energy
#   Count Rate:               Counts per Second
#   Separate Scan Data:       no
#   Separate Channel Data:    no
#   External Channel Data:    yes
#   Transmission Function:    no
#   ErrorBar:                 no
#   Operation Results:        yes
#   Time Zone Format:         UTC
#
# Group:             Spectrum Group
#
# Region:            Ba3d
# Acquisition Date:  04/21/22 23:00:02 UTC
# Analysis Method:   XPS
# Analyzer:          Phoibos 100 R6
# Analyzer Lens:     LargeArea:1.5kV
# Analyzer Slit:     1:0.2x20\B:open
# Scan Mode:         FixedAnalyzerTransmission
# Curves/Scan:       1
# Values/Curve:      121
# Dwell Time:        0.8
# Excitation Energy: 1486.61
# Binding Energy:    789
# Pass Energy:       30
# Bias Voltage:      90
# Detector Voltage:  2600
# Eff. Workfunction: 4.309
# Source:            X-Ray Dummy
# Comment:           
#
# Cycle: 0
# Number of Scans: 20
#
# Cycle: 0, Curve: 0
# Acquisition Date: 04/21/22 23:00:02 UTC
#
# ColumnLabels: energy counts/s
#
789  1963.6875
788.9  2002.5
788.8  1969.9375
788.7  1987
788.6  1978.9375
788.5  1966.625
788.4  1979
788.3  1987.1875
788.2  1998.9375
788.1  1960.25
788  1990.25
787.9  1986.25
787.8  1972.3125
787.7  1943.0625
787.6  1964.1875
787.5  1948
787.4  1952.1875
787.3  1959.375
787.2  1980.5
787.1  1959.3125
787  1962.8125
786.9  1970.6875
786.8  1992.1875
786.7  1971.9375
786.6  1957.625
786.5  2004.3125
786.4  1973.1875
786.3  1991.9375
786.2  1974.8125
786.1  1992.0625
786  2016.25
785.9  2025.5625
785.8  2061.375
785.7  2049.375
785.6  2043.75
785.5  2066.0625
785.4  2108
785.3  2124.25
785.2  2134.125
785.1  2189.5
785  2229.375
784.9  2263.0625
784.8  2323.875
784.7  2407.8125
784.6  2467.625
784.5  2560.875
784.4  2634.125
784.3  2765.0625
784.2  2875.625
784.1  2998.0625
784  3112.1875
783.9  3259.25
783.8  3380.3125
783.7  3486.75
783.6  3640.25
783.5  3763.875
783.4  3875
783.3  3915.375
783.2  3979.375
783.1  4026.375
783  4031.75
782.9  4019.1875
782.8  3975.3125
782.7  3891.875
782.6  3788.9375
782.5  3695.875
782.4  3577.6875
782.3  3415.4375
782.2  3327.25
782.1  3155.875
782  3057.0625
781.9  2920
781.8  2747.5
781.7  2661.375
781.6  2549.875
781.5  2451
781.4  2337.375
781.3  2304.8125
781.2  2230.25
781.1  2196.625
781  2117
780.9  2062.4375
780.8  2046.5
780.7  2014.5625
780.6  1975.1875
780.5  1969.25
780.4  1952.5625
780.3  1927.5
780.2  1939.9375
780.1  1901.1875
780  1895.3125
779.9  1861.5625
779.8  1857.0625
779.7  1861
779.6  1858.4375
779.5  1845.3125
779.4  1856.4375
779.3  1841.5
779.2  1806.5
779.1  1827.8125
779  1828.6875
778.9  1813.6875
778.8  1803.875
778.7  1804.125
778.6  1848.6875
778.5  1831
778.4  1812.8125
778.3  1806.5625
778.2  1805.625
778.1  1832.75
778  1840.75
777.9  1816.6875
777.8  1797.3125
777.7  1810.3125
777.6  1815.75
777.5  1791.1875
777.4  1786.5
777.3  1792.0625
777.2  1791.5625
777.1  1780.375
777  1781.9375

# Region:            C1s
# Acquisition Date:  04/22/22 06:50:54 UTC
# Analysis Method:   XPS
# Analyzer:          Phoibos 100 R6
# Analyzer Lens:     LargeArea:1.5kV
# Analyzer Slit:     1:0.2x20\B:open
# Scan Mode:         FixedAnalyzerTransmission
# Curves/Scan:       1
# Values/Curve:      151
# Dwell Time:        0.8
# Excitation Energy: 1486.61
# Binding Energy:    295
# Pass Energy:       30
# Bias Voltage:      90
# Detector Voltage:  2600
# Eff. Workfunction: 4.309
# Source:            X-Ray Dummy
# Comment:           
#
# Cycle: 0
# Number of Scans: 87
#
# Cycle: 0, Curve: 0
# Acquisition Date: 04/22/22 06:50:54 UTC
#
# ColumnLabels: energy counts/s
#
295  608.17529
294.9  609.36782
294.8  613.90805
294.7  610.50287
294.6  616.14943
294.5  611.36494
294.4  610.14368
294.3  608.20402
294.2  616.42241
294.1  617.74425
294  616.73851
293.9  617.61494
293.8  616.82471
293.7  619.6408
293.6  618.54885
293.5  619.25287
293.4  617.38506
293.3  627.57184
293.2  624.51149
293.1  624.46839
293  628.80747
292.9  627.95977
292.8  636.07759
292.7  638.3046
292.6  633.69253
292.5  639.25287
292.4  658.07471
292.3  643.11782
292.2  655.60345
292.1  650.90517
292  654.87069
291.9  667.70115
291.8  668.07471
291.7  671.92529
291.6  676.63793
291.5  680.70402
291.4  693.7069
291.3  689.91379
291.2  697.28448
291.1  709.62644
291  733.52011
290.9  724.56897
290.8  730.81897
290.7  741.66667
290.6  744.52586
290.5  760.76149
290.4  763.83621
290.3  774.87069
290.2  789.43966
290.1  801.92529
290  816.70977
289.9  828.37644
289.8  843.10345
289.7  865
289.6  876.75287
289.5  896.2069
289.4  919.54023
289.3  935.90517
289.2  952.77299
289.1  980.22989
289  1010.5891
288.9  1032.5431
288.8  1056.8534
288.7  1079.727
288.6  1110.977
288.5  1130.6322
288.4  1162.7874
288.3  1188.3764
288.2  1224.6983
288.1  1236.6523
288  1264.0086
287.9  1286.408
287.8  1303.7931
287.7  1325.3879
287.6  1321.0776
287.5  1327.658
287.4  1311.681
287.3  1309.3534
287.2  1300.1293
287.1  1246.8103
287  1213.5057
286.9  1181.0776
286.8  1125.3592
286.7  1083.5201
286.6  1023.3477
286.5  990.8477
286.4  930.67529
286.3  878.85057
286.2  835.60345
286.1  803.50575
286  766.58046
285.9  740.71839
285.8  709.08046
285.7  692.62931
285.6  670.64655
285.5  656.19253
285.4  659.98563
285.3  629.5546
285.2  618.53448
285.1  613.36207
285  606.19253
284.9  610.81897
284.8  605.91954
284.7  599.45402
284.6  592.95977
284.5  588.85057
284.4  585.08621
284.3  591.63793
284.2  585.74713
284.1  588.56322
284  580.25862
283.9  587.75862
283.8  582.9023
283.7  580.97701
283.6  573.36207
283.5  578.85057
283.4  581.03448
283.3  584.46839
283.2  578.99425
283.1  599.43966
283  582.32759
282.9  576.27874
282.8  580.48851
282.7  580.93391
282.6  578.08908
282.5  576.17816
282.4  586.62356
282.3  582.18391
282.2  578.80747
282.1  582.01149
282  584.1954
281.9  587.67241
281.8  583.87931
281.7  587.21264
281.6  586.03448
281.5  584.56897
281.4  590.10057
281.3  588.77874
281.2  586.89655
281.1  587.25575
281  578.3908
280.9  587.8592
280.8  582.97414
280.7  586.59483
280.6  584.5546
280.5  593.07471
280.4  581.27874
280.3  585.18678
280.2  582.27011
280.1  588.03161
280  588.73563

# Region:            O1s
# Acquisition Date:  04/22/22 06:47:13 UTC
# Analysis Method:   XPS
# Analyzer:          Phoibos 100 R6
# Analyzer Lens:     LargeArea:1.5kV
# Analyzer Slit:     1:0.2x20\B:open
# Scan Mode:         FixedAnalyzerTransmission
# Curves/Scan:       1
# Values/Curve:      141
# Dwell Time:        0.8
# Excitation Energy: 1486.61
# Binding Energy:    541
# Pass Energy:       30
# Bias Voltage:      90
# Detector Voltage:  2600
# Eff. Workfunction: 4.309
# Source:            X-Ray Dummy
# Comment:           
#
# Cycle: 0
# Number of Scans: 86
#
# Cycle: 0, Curve: 0
# Acquisition Date: 04/22/22 06:47:13 UTC
#
# ColumnLabels: energy counts/s
#
541  921.55523
540.9  923.1686
540.8  927.90698
540.7  925.21802
540.6  927.70349
540.5  927.36919
540.4  937.89244
540.3  941.97674
540.2  945.13081
540.1  953.50291
540  951.39535
539.9  957.5436
539.8  963.18314
539.7  966.80233
539.6  976.25
539.5  992.09302
539.4  996.5843
539.3  1006.1773
539.2  1004.7093
539.1  1017.4709
539  1029.7238
538.9  1036.0174
538.8  1048.4302
538.7  1061.439
538.6  1078.314
538.5  1088.9826
538.4  1109.593
538.3  1123.5174
538.2  1152.1366
538.1  1159.8256
538  1180.0727
537.9  1221.0465
537.8  1257.9942
537.7  1308.3285
537.6  1358.939
537.5  1421.1628
537.4  1517.8488
537.3  1603.4157
537.2  1720.814
537.1  1859.4477
537  2026.6134
536.9  2207.9942
536.8  2417.2093
536.7  2657.3983
536.6  2940.2616
536.5  3219.9709
536.4  3555.5669
536.3  3889.0698
536.2  4256.2791
536.1  4626.2355
536  5006.3517
535.9  5400.189
535.8  5752.5291
535.7  6084.4622
535.6  6360.6831
535.5  6590.6686
535.4  6734.8692
535.3  6867.1076
535.2  6861.8314
535.1  6801.9622
535  6661.2064
534.9  6436.875
534.8  6183.3576
534.7  5842.3256
534.6  5472.5
534.5  5077.1802
534.4  4663.6628
534.3  4251.6424
534.2  3877.0349
534.1  3484.4477
534  3165.7703
533.9  2842.6308
533.8  2579.1279
533.7  2308.1105
533.6  2099.7384
533.5  1929.0843
533.4  1769.1424
533.3  1638.532
533.2  1526.6424
533.1  1432.0349
533  1353.8372
532.9  1283.6337
532.8  1226.061
532.7  1178.9971
532.6  1132.0349
532.5  1089.186
532.4  1056.8314
532.3  1034.1715
532.2  1001.5407
532.1  991.13372
532  962.73256
531.9  949.98547
531.8  934.40407
531.7  911.32267
531.6  901.56977
531.5  885.01453
531.4  876.13372
531.3  863.61919
531.2  859.43314
531.1  855.65407
531  844.46221
530.9  837.90698
530.8  845.07267
530.7  830.87209
530.6  825.36337
530.5  815.46512
530.4  821.10465
530.3  817.68895
530.2  817.28198
530.1  811.5407
530  807.90698
529.9  820.36337
529.8  807.89244
529.7  817.07849
529.6  812.1657
529.5  824.12791
529.4  810.68314
529.3  803.4593
529.2  808.34302
529.1  803.90988
529  794.89826
528.9  797.04942
528.8  787.41279
528.7  788.88081
528.6  791.78779
528.5  792.29651
528.4  785.55233
528.3  780.5814
528.2  784.79651
528.1  779.68023
528  781.64244
527.9  787.1657
527.8  783.25581
527.7  790.81395
527.6  795.53779
527.5  796.32267
527.4  807.5436
527.3  819.68023
527.2  829.25872
527.1  843.96802
527  861.97674

# Region:            Cl2p
# Acquisition Date:  04/22/22 03:24:02 UTC
# Analysis Method:   XPS
# Analyzer:          Phoibos 100 R6
# Analyzer Lens:     LargeArea:1.5kV
# Analyzer Slit:     1:0.2x20\B:open
# Scan Mode:         FixedAnalyzerTransmission
# Curves/Scan:       1
# Values/Curve:      111
# Dwell Time:        0.8
# Excitation Energy: 1486.61
# Binding Energy:    207
# Pass Energy:       30
# Bias Voltage:      90
# Detector Voltage:  2600
# Eff. Workfunction: 4.309
# Source:            X-Ray Dummy
# Comment:           
#
# Cycle: 0
# Number of Scans: 50
#
# Cycle: 0, Curve: 0
# Acquisition Date: 04/22/22 03:24:02 UTC
#
# ColumnLabels: energy counts/s
#
207  576
206.9  569.55
206.8  573.475
206.7  575.575
206.6  572.9
206.5  580.425
206.4  574.35
206.3  572.875
206.2  567.4
206.1  573.775
206  573.4
205.9  577.65
205.8  580.35
205.7  579.825
205.6  572.925
205.5  579.625
205.4  568.65
205.3  569.9
205.2  573.775
205.1  569.625
205  573.075
204.9  577.2
204.8  572.875
204.7  571.525
204.6  579.725
204.5  578.1
204.4  582.175
204.3  582.35
204.2  588.25
204.1  583.525
204  590.225
203.9  593.95
203.8  600.175
203.7  617.95
203.6  599.225
203.5  603.9
203.4  612.5
203.3  614.325
203.2  619.5
203.1  633.375
203  625.8
202.9  641.475
202.8  641.375
202.7  651.075
202.6  658.9
202.5  666.75
202.4  670.275
202.3  674.725
202.2  680.1
202.1  684.3
202  694.15
201.9  707.575
201.8  701.325
201.7  702.375
201.6  707.15
201.5  709.1
201.4  718.025
201.3  726.15
201.2  729.95
201.1  736.45
201  735.1
200.9  735.725
200.8  732.825
200.7  736.675
200.6  731.475
200.5  733.3
200.4  725.55
200.3  719.725
200.2  701.4
200.1  697.475
200  682.125
199.9  677.65
199.8  663.575
199.7  654.525
199.6  637.325
199.5  623.95
199.4  610.8
199.3  608.35
199.2  595.975
199.1  593.1
199  592.9
198.9  589.575
198.8  582.225
198.7  579.525
198.6  604.45
198.5  578.55
198.4  572.2
198.3  575.2
198.2  578.225
198.1  571.825
198  571.7
197.9  572.325
197.8  572.125
197.7  575.375
197.6  580.725
197.5  570.1
197.4  569.3
197.3  572.375
197.2  570.9
197.1  574.2
197  569.05
196.9  576.425
196.8  577.4
196.7  572.975
196.6  576.9
196.5  578.225
196.4  584.125
196.3  581.6
196.2  584.225
196.1  583.675
196  584.95

# Region:            Si2p (2)
# Acquisition Date:  04/21/22 21:07:49 UTC
# Analysis Method:   XPS
# Analyzer:          Phoibos 100 R6
# Analyzer Lens:     LargeArea:1.5kV
# Analyzer Slit:     1:0.2x20\B:open
# Scan Mode:         FixedAnalyzerTransmission
# Curves/Scan:       1
# Values/Curve:      391
# Dwell Time:        0.8
# Excitation Energy: 1486.61
# Binding Energy:    128
# Pass Energy:       30
# Bias Voltage:      90
# Detector Voltage:  2600
# Eff. Workfunction: 4.309
# Source:            X-Ray Dummy
# Comment:           
#
# Cycle: 0
# Number of Scans: 10
#
# Cycle: 0, Curve: 0
# Acquisition Date: 04/21/22 21:07:49 UTC
#
# ColumnLabels: energy counts/s
#
128  460.75
127.9  447.25
127.8  438.875
127.7  435.125
127.6  444.875
127.5  453.75
127.4  452.75
127.3  441.75
127.2  439.875
127.1  445
127  446
126.9  442.5
126.8  435
126.7  439.625
126.6  441.25
126.5  444.875
126.4  443
126.3  450.375
126.2  435.5
126.1  444.875
126  430.5
125.9  431.75
125.8  434.875
125.7  438
125.6  450.625
125.5  445.375
125.4  439.875
125.3  431.75
125.2  439.5
125.1  433.875
125  429.875
124.9  424.375
124.8  422
124.7  437.125
124.6  431.875
124.5  426.5
124.4  435
124.3  417.875
124.2  428.125
124.1  430.625
124  399.25
123.9  423.75
123.8  423.375
123.7  411.75
123.6  430.5
123.5  413.625
123.4  427.75
123.3  417.5
123.2  424
123.1  406.75
123  410.375
122.9  415.125
122.8  404.5
122.7  407
122.6  414.75
122.5  414.25
122.4  407.625
122.3  416.375
122.2  416.5
122.1  419.625
122  413.75
121.9  421.875
121.8  400.25
121.7  408.75
121.6  395.625
121.5  401.375
121.4  476.625
121.3  420.375
121.2  390.875
121.1  412.25
121  402
120.9  392.375
120.8  402.625
120.7  394.875
120.6  406.125
120.5  412.5
120.4  405.625
120.3  382.375
120.2  405.875
120.1  393.125
120  398
119.9  397.25
119.8  399.625
119.7  395.375
119.6  377.5
119.5  392.375
119.4  378.875
119.3  391.875
119.2  385.875
119.1  377.125
119  399
118.9  395.75
118.8  380.75
118.7  385.5
118.6  374.625
118.5  375
118.4  382.375
118.3  368.375
118.2  369.125
118.1  368.5
118  366.875
117.9  358.625
117.8  365.375
117.7  364.875
117.6  371.25
117.5  378
117.4  371.875
117.3  364.25
117.2  357.875
117.1  362
117  356.5
116.9  365.625
116.8  367.25
116.7  371.75
116.6  357
116.5  352.125
116.4  357.125
116.3  354.5
116.2  342.125
116.1  350
116  350.75
115.9  350.75
115.8  344.875
115.7  345
115.6  346.25
115.5  338.125
115.4  347.875
115.3  353.5
115.2  347.75
115.1  344.5
115  342.5
114.9  340.125
114.8  340
114.7  343.875
114.6  328.625
114.5  331.625
114.4  328.875
114.3  336.125
114.2  338.875
114.1  335.75
114  328.5
113.9  322.625
113.8  329
113.7  316.625
113.6  336.875
113.5  336.25
113.4  327.75
113.3  338
113.2  332.875
113.1  324.125
113  323.625
112.9  333
112.8  314
112.7  333.25
112.6  310
112.5  328.25
112.4  328.75
112.3  337.375
112.2  325.625
112.1  341.875
112  325.375
111.9  320.375
111.8  336.625
111.7  331.75
111.6  329.375
111.5  325.5
111.4  335.125
111.3  326.75
111.2  327.125
111.1  333.875
111  340.5
110.9  317.625
110.8  322.625
110.7  341.5
110.6  332.25
110.5  346.375
110.4  332.25
110.3  336.625
110.2  334.125
110.1  329.625
110  338.5
109.9  350.375
109.8  335.125
109.7  342.875
109.6  354.125
109.5  339.875
109.4  346.625
109.3  349
109.2  350.125
109.1  352.875
109  347
108.9  372
108.8  352.875
108.7  368.375
108.6  364.75
108.5  385.875
108.4  380.25
108.3  409
108.2  404.125
108.1  421
108  442
107.9  454.375
107.8  476.625
107.7  510.125
107.6  537.375
107.5  570.5
107.4  622
107.3  662.5
107.2  726.625
107.1  755.75
107  817.375
106.9  872.625
106.8  940.25
106.7  998.25
106.6  1053.25
106.5  1123.375
106.4  1162.375
106.3  1174.125
106.2  1236
106.1  1226.375
106  1259
105.9  1246.125
105.8  1230.25
105.7  1214
105.6  1160.5
105.5  1106.625
105.4  1057.375
105.3  1005.5
105.2  940.75
105.1  873.875
105  815.25
104.9  753.625
104.8  687.625
104.7  638.5
104.6  600.75
104.5  545.5
104.4  507.625
104.3  494.375
104.2  435.5
104.1  433.5
104  421.25
103.9  407.25
103.8  381.625
103.7  369.75
103.6  366.125
103.5  347.375
103.4  360.125
103.3  342.625
103.2  347.5
103.1  350.375
103  349.125
102.9  331
102.8  331.75
102.7  329.75
102.6  329.875
102.5  327.5
102.4  323.375
102.3  335
102.2  321.25
102.1  325.5
102  316.75
101.9  328.5
101.8  322
101.7  309.25
101.6  322
101.5  336.75
101.4  319.375
101.3  316.625
101.2  309.75
101.1  322.875
101  323.125
100.9  313.75
100.8  315.625
100.7  312.75
100.6  313.125
100.5  321.875
100.4  314.375
100.3  324.75
100.2  305.125
100.1  314.75
100  313.5
99.9  328.375
99.8  322.875
99.7  323.25
99.6  312.875
99.5  321.125
99.4  324.375
99.3  305
99.2  319.75
99.1  307.375
99  303.375
98.9  317.75
98.8  317.75
98.7  320.125
98.6  318.875
98.5  312.875
98.4  306.5
98.3  317
98.2  313.375
98.1  313.125
98  310.5
97.9  327
97.8  335
97.7  328.875
97.6  330.5
97.5  330.875
97.4  350.875
97.3  337.75
97.2  346.625
97.1  367.5
97  360.75
96.9  373.875
96.8  374.625
96.7  395.25
96.6  408.125
96.5  415.25
96.4  421
96.3  439.75
96.2  442.25
96.1  447.625
96  452.625
95.9  475.625
95.8  490.25
95.7  495.375
95.6  504.5
95.5  508.75
95.4  515.25
95.3  527.375
95.2  515.125
95.1  510.5
95  529.25
94.9  494.375
94.8  507.5
94.7  505.625
94.6  472.25
94.5  483.375
94.4  448.75
94.3  469.625
94.2  471
94.1  453
94  441.875
93.9  449.75
93.8  435.5
93.7  454.25
93.6  446.375
93.5  458.375
93.4  483.625
93.3  489.375
93.2  497.625
93.1  505.875
93  501.125
92.9  505.5
92.8  535.875
92.7  540.875
92.6  539.625
92.5  521.625
92.4  519.875
92.3  508.875
92.2  517
92.1  490.5
92  467.375
91.9  459.5
91.8  441
91.7  436.875
91.6  406.75
91.5  397.375
91.4  388.625
91.3  366.875
91.2  346.75
91.1  327.25
91  333.875
90.9  339.5
90.8  314.25
90.7  322.875
90.6  308.75
90.5  312.875
90.4  309.25
90.3  314.125
90.2  305
90.1  312.375
90  301.25
89.9  306.125
89.8  301.5
89.7  294.625
89.6  311.625
89.5  300.875
89.4  308.75
89.3  304.625
89.2  303.75
89.1  305.875
89  316.875

# Region:            overview
# Acquisition Date:  04/21/22 16:32:00 UTC
# Analysis Method:   XPS
# Analyzer:          Phoibos 100 R6
# Analyzer Lens:     MediumArea:1.5kV
# Analyzer Slit:     1:0.2x20\B:open
# Scan Mode:         FixedAnalyzerTransmission
# Curves/Scan:       1
# Values/Curve:      1205
# Dwell Time:        0.2
# Excitation Energy: 1486.61
# Binding Energy:    1200
# Pass Energy:       50
# Bias Voltage:      90
# Detector Voltage:  2600
# Eff. Workfunction: 4.309
# Source:            X-Ray Dummy
# Comment:           
#
# Cycle: 0
# Number of Scans: 1
#
# Cycle: 0, Curve: 0
# Acquisition Date: 04/21/22 16:32:00 UTC
#
# ColumnLabels: energy counts/s
#
1200  2940
1199  2710
1198  2935
1197  2560
1196  2860
1195  2620
1194  2660
1193  2850
1192  2560
1191  2780
1190  2635
1189  2705
1188  2720
1187  2710
1186  2725
1185  2610
1184  2750
1183  2820
1182  2695
1181  2750
1180  2790
1179  2650
1178  2620
1177  2535
1176  2525
1175  2500
1174  2475
1173  2635
1172  2690
1171  2655
1170  2625
1169  2710
1168  2520
1167  2600
1166  2735
1165  2675
1164  2475
1163  2760
1162  2365
1161  2500
1160  2600
1159  2350
1158  2525
1157  2450
1156  2565
1155  2545
1154  2405
1153  2470
1152  2505
1151  2635
1150  2610
1149  2505
1148  2695
1147  2480
1146  2700
1145  2550
1144  2595
1143  2690
1142  2585
1141  2445
1140  2580
1139  2680
1138  2605
1137  2510
1136  2540
1135  2545
1134  2500
1133  2540
1132  2695
1131  2610
1130  2165
1129  2715
1128  2460
1127  2535
1126  2490
1125  2435
1124  2415
1123  2500
1122  2300
1121  2210
1120  2425
1119  2480
1118  2525
1117  2405
1116  2465
1115  2400
1114  2475
1113  2355
1112  2180
1111  2335
1110  2640
1109  2420
1108  2460
1107  2470
1106  2635
1105  2340
1104  2225
1103  2360
1102  2365
1101  2395
1100  2350
1099  2315
1098  2365
1097  2425
1096  2410
1095  2295
1094  2510
1093  2490
1092  2445
1091  2450
1090  2530
1089  2525
1088  2255
1087  2295
1086  2240
1085  2500
1084  2395
1083  2500
1082  2325
1081  2520
1080  2330
1079  2405
1078  2310
1077  2240
1076  2670
1075  2835
1074  2525
1073  2660
1072  2560
1071  2375
1070  2390
1069  2390
1068  2505
1067  2595
1066  2725
1065  2570
1064  2640
1063  2595
1062  2300
1061  2535
1060  2485
1059  2225
1058  2425
1057  2495
1056  2350
1055  2250
1054  2225
1053  2360
1052  2350
1051  2440
1050  2145
1049  2290
1048  2345
1047  2430
1046  2220
1045  2290
1044  2275
1043  2195
1042  2155
1041  2210
1040  2140
1039  2295
1038  2290
1037  2260
1036  2070
1035  2165
1034  2280
1033  2330
1032  2570
1031  2385
1030  2275
1029  2095
1028  2265
1027  2470
1026  2410
1025  2265
1024  2555
1023  2400
1022  2090
1021  2435
1020  2070
1019  2325
1018  2425
1017  2230
1016  2330
1015  2165
1014  2195
1013  2235
1012  2320
1011  2385
1010  2250
1009  2125
1008  2205
1007  2435
1006  2330
1005  2320
1004  2450
1003  2500
1002  2390
1001  2265
1000  2230
999  2235
998  2065
997  2100
996  2025
995  2115
994  2380
993  2165
992  2155
991  1930
990  1905
989  1840
988  2045
987  2015
986  2295
985  2240
984  2045
983  2405
982  2270
981  2425
980  2210
979  2145
978  1910
977  1840
976  1770
975  1735
974  1620
973  1850
972  1560
971  1575
970  1515
969  1450
968  1490
967  1390
966  1500
965  1410
964  1275
963  1495
962  1345
961  1335
960  1320
959  1340
958  1430
957  1515
956  1530
955  1440
954  1215
953  1510
952  1375
951  1415
950  1525
949  1365
948  1335
947  1450
946  1475
945  1590
944  1440
943  1420
942  1440
941  1370
940  1415
939  1480
938  1545
937  1440
936  1510
935  1505
934  1420
933  1480
932  1665
931  1590
930  1330
929  1385
928  1495
927  1565
926  1520
925  1480
924  1480
923  1520
922  1570
921  1455
920  1530
919  1590
918  1560
917  1620
916  1535
915  1495
914  1475
913  1340
912  1695
911  1620
910  1580
909  1570
908  1545
907  1840
906  1810
905  1900
904  1790
903  1780
902  1750
901  1700
900  1535
899  1395
898  1640
897  1750
896  1465
895  1555
894  1725
893  1770
892  1730
891  1590
890  1560
889  1700
888  1435
887  1470
886  1365
885  1335
884  1325
883  1405
882  1425
881  1435
880  1540
879  1385
878  1375
877  1430
876  1315
875  1230
874  1555
873  1335
872  1260
871  1435
870  1310
869  1310
868  1510
867  1325
866  1370
865  1575
864  1385
863  1415
862  1310
861  1390
860  1320
859  1535
858  1440
857  1275
856  1390
855  1505
854  1320
853  1395
852  1435
851  1455
850  1465
849  1485
848  1380
847  1550
846  1460
845  1450
844  1340
843  1410
842  1545
841  1410
840  1290
839  1485
838  1250
837  1415
836  1545
835  1580
834  1465
833  1300
832  1460
831  1395
830  1390
829  1455
828  1485
827  1605
826  1560
825  1465
824  1570
823  1500
822  1545
821  1625
820  1535
819  1495
818  1490
817  1540
816  1465
815  1510
814  1510
813  1580
812  1515
811  1480
810  1535
809  1585
808  1655
807  1610
806  1760
805  1530
804  1580
803  1600
802  1500
801  1470
800  1750
799  2435
798  2535
797  2080
796  1640
795  1420
794  1630
793  1615
792  1565
791  1575
790  1500
789  1595
788  1570
787  1505
786  1580
785  1915
784  2785
783  2995
782  2530
781  1695
780  1545
779  1565
778  1375
777  1535
776  1455
775  1610
774  1520
773  1455
772  1410
771  1555
770  1495
769  1510
768  1465
767  1395
766  1460
765  1370
764  1315
763  1530
762  1515
761  1550
760  1330
759  1625
758  1365
757  1390
756  1475
755  1350
754  1405
753  1395
752  1355
751  1560
750  1345
749  1485
748  1315
747  1575
746  1400
745  1415
744  1455
743  1275
742  1490
741  1510
740  1350
739  1460
738  1525
737  1550
736  1320
735  1550
734  1355
733  1305
732  1390
731  1510
730  1420
729  1475
728  1390
727  1310
726  1465
725  1500
724  1475
723  1530
722  1400
721  1440
720  1355
719  1600
718  1480
717  1240
716  1510
715  1415
714  1490
713  1515
712  1415
711  1595
710  1530
709  1495
708  1510
707  1385
706  1570
705  1405
704  1545
703  1495
702  1535
701  1410
700  1540
699  1410
698  1345
697  1505
696  1570
695  1520
694  1520
693  1315
692  1610
691  1505
690  1515
689  1415
688  1470
687  1590
686  1515
685  1530
684  1660
683  1460
682  1420
681  1640
680  1550
679  1445
678  1515
677  1440
676  1600
675  1445
674  1560
673  1580
672  1620
671  1410
670  1445
669  1480
668  1535
667  1715
666  1335
665  1670
664  1625
663  1420
662  1550
661  1510
660  1625
659  1535
658  1525
657  1620
656  1595
655  1625
654  1740
653  1655
652  1640
651  1665
650  1520
649  1580
648  1715
647  1620
646  1540
645  1545
644  1630
643  1735
642  1630
641  1555
640  1490
639  1505
638  1480
637  1770
636  1550
635  1700
634  1475
633  1620
632  1700
631  1685
630  1615
629  1770
628  1630
627  1690
626  1585
625  1510
624  1640
623  1755
622  1615
621  1775
620  1640
619  1630
618  1505
617  1490
616  1745
615  1560
614  1575
613  1790
612  1755
611  1635
610  1525
609  1840
608  1540
607  1775
606  1625
605  1745
604  1635
603  1640
602  1635
601  1715
600  1925
599  1910
598  1650
597  1865
596  1615
595  1740
594  1675
593  1960
592  1765
591  1740
590  1760
589  1820
588  1765
587  1850
586  1760
585  1675
584  1700
583  1730
582  1665
581  1605
580  1840
579  1835
578  1830
577  1675
576  1910
575  1665
574  1545
573  1585
572  1665
571  1575
570  1635
569  1515
568  1615
567  1660
566  1815
565  1805
564  1740
563  1975
562  1980
561  2050
560  1940
559  1910
558  2180
557  2165
556  1855
555  1830
554  1825
553  1630
552  1525
551  1505
550  1605
549  1595
548  1290
547  1235
546  1325
545  1110
544  1100
543  960
542  1045
541  1145
540  1090
539  1055
538  1415
537  2355
536  5205
535  6665
534  3950
533  1840
532  1085
531  900
530  920
529  800
528  795
527  940
526  1195
525  1130
524  1070
523  975
522  920
521  790
520  780
519  685
518  765
517  720
516  755
515  795
514  815
513  850
512  865
511  790
510  710
509  750
508  775
507  680
506  755
505  760
504  750
503  705
502  745
501  825
500  820
499  795
498  760
497  695
496  705
495  750
494  700
493  710
492  745
491  795
490  725
489  730
488  670
487  855
486  740
485  705
484  805
483  630
482  740
481  675
480  710
479  625
478  750
477  705
476  805
475  820
474  785
473  735
472  755
471  805
470  700
469  710
468  820
467  755
466  785
465  710
464  845
463  765
462  800
461  645
460  755
459  715
458  665
457  730
456  705
455  685
454  680
453  680
452  725
451  710
450  710
449  780
448  720
447  700
446  780
445  685
444  645
443  815
442  545
441  800
440  755
439  840
438  655
437  690
436  820
435  815
434  765
433  675
432  785
431  690
430  800
429  710
428  650
427  820
426  730
425  745
424  860
423  690
422  840
421  715
420  610
419  740
418  715
417  705
416  695
415  710
414  780
413  820
412  765
411  725
410  625
409  675
408  815
407  775
406  740
405  925
404  740
403  915
402  870
401  770
400  815
399  605
398  765
397  780
396  780
395  740
394  710
393  795
392  825
391  780
390  805
389  805
388  665
387  805
386  780
385  800
384  665
383  685
382  815
381  835
380  855
379  745
378  745
377  805
376  700
375  735
374  795
373  735
372  715
371  745
370  750
369  785
368  860
367  740
366  700
365  675
364  825
363  790
362  780
361  800
360  825
359  695
358  885
357  695
356  805
355  810
354  720
353  755
352  860
351  765
350  875
349  955
348  735
347  725
346  775
345  755
344  790
343  760
342  640
341  735
340  850
339  790
338  900
337  795
336  745
335  840
334  800
333  800
332  745
331  845
330  810
329  795
328  800
327  845
326  920
325  795
324  795
323  865
322  755
321  915
320  790
319  800
318  865
317  875
316  935
315  800
314  800
313  770
312  950
311  820
310  780
309  920
308  820
307  865
306  855
305  880
304  945
303  845
302  875
301  1000
300  895
299  760
298  825
297  755
296  935
295  935
294  805
293  880
292  900
291  930
290  1125
289  1505
288  1530
287  1545
286  1120
285  840
284  775
283  905
282  900
281  710
280  880
279  830
278  905
277  790
276  880
275  685
274  835
273  905
272  885
271  765
270  805
269  755
268  850
267  845
266  745
265  725
264  770
263  790
262  725
261  880
260  700
259  870
258  860
257  725
256  765
255  725
254  815
253  750
252  690
251  730
250  705
249  710
248  800
247  790
246  675
245  810
244  760
243  935
242  755
241  855
240  785
239  810
238  760
237  740
236  910
235  870
234  765
233  775
232  695
231  805
230  725
229  810
228  875
227  750
226  750
225  795
224  810
223  765
222  735
221  865
220  890
219  990
218  770
217  960
216  880
215  785
214  820
213  850
212  780
211  840
210  775
209  865
208  840
207  860
206  860
205  850
204  875
203  880
202  1150
201  940
200  1100
199  900
198  955
197  840
196  760
195  835
194  755
193  795
192  895
191  930
190  890
189  845
188  860
187  785
186  850
185  905
184  885
183  800
182  1015
181  1080
180  925
179  855
178  840
177  850
176  930
175  890
174  855
173  775
172  630
171  810
170  695
169  705
168  635
167  665
166  590
165  660
164  570
163  690
162  765
161  725
160  815
159  1040
158  1665
157  1555
156  1455
155  1090
154  825
153  750
152  605
151  675
150  725
149  720
148  800
147  670
146  780
145  615
144  695
143  625
142  625
141  645
140  675
139  680
138  615
137  595
136  635
135  545
134  610
133  560
132  570
131  615
130  695
129  635
128  620
127  585
126  645
125  690
124  545
123  650
122  575
121  575
120  520
119  580
118  640
117  480
116  490
115  525
114  505
113  450
112  420
111  590
110  500
109  570
108  740
107  1160
106  1645
105  1270
104  720
103  505
102  500
101  475
100  440
99  475
98  435
97  450
96  660
95  760
94  715
93  700
92  645
91  495
90  490
89  440
88  395
87  510
86  445
85  425
84  485
83  495
82  555
81  390
80  500
79  420
78  495
77  430
76  390
75  385
74  410
73  450
72  340
71  460
70  400
69  425
68  470
67  440
66  355
65  485
64  425
63  455
62  440
61  425
60  475
59  370
58  485
57  415
56  395
55  380
54  410
53  455
52  475
51  480
50  505
49  380
48  440
47  430
46  335
45  485
44  420
43  395
42  440
41  410
40  400
39  335
38  460
37  435
36  395
35  440
34  435
33  500
32  505
31  430
30  495
29  610
28  700
27  650
26  485
25  395
24  350
23  345
22  400
21  370
20  375
19  395
18  335
17  450
16  420
15  445
14  480
13  345
12  405
11  370
10  325
9  440
8  400
7  245
6  385
5  315
4  340
3  335
2  350
1  270
-2.2737368e-013  360
-1  305
-2  425
-3  265
-4  335

# Region:            N1s
# Acquisition Date:  04/22/22 06:48:52 UTC
# Analysis Method:   XPS
# Analyzer:          Phoibos 100 R6
# Analyzer Lens:     LargeArea:1.5kV
# Analyzer Slit:     1:0.2x20\B:open
# Scan Mode:         FixedAnalyzerTransmission
# Curves/Scan:       1
# Values/Curve:      121
# Dwell Time:        0.8
# Excitation Energy: 1486.61
# Binding Energy:    409
# Pass Energy:       30
# Bias Voltage:      90
# Detector Voltage:  2600
# Eff. Workfunction: 4.309
# Source:            X-Ray Dummy
# Comment:           
#
# Cycle: 0
# Number of Scans: 86
#
# Cycle: 0, Curve: 0
# Acquisition Date: 04/22/22 06:48:52 UTC
#
# ColumnLabels: energy counts/s
#
409  603.11047
408.9  598.02326
408.8  605.50872
408.7  598.43023
408.6  598.64826
408.5  596.19186
408.4  598.85174
408.3  605.45058
408.2  594.59302
408.1  595.14535
408  601.96221
407.9  595.2907
407.8  605
407.7  602.32558
407.6  601.16279
407.5  598.21221
407.4  598.61919
407.3  604.15698
407.2  601.72965
407.1  596.36628
407  601.01744
406.9  603.18314
406.8  604.52035
406.7  599.63663
406.6  595.42151
406.5  601.23547
406.4  603.83721
406.3  604.38953
406.2  602.55814
406.1  605.9593
406  599.94186
405.9  600.78488
405.8  608.0814
405.7  623.93895
405.6  599.27326
405.5  606.52616
405.4  599.14244
405.3  606.06105
405.2  623.02326
405.1  611.77326
405  610.45058
404.9  617.76163
404.8  618.54651
404.7  619.375
404.6  619.92733
404.5  624.59302
404.4  625.98837
404.3  632.68895
404.2  631.52616
404.1  638.61919
404  643.38663
403.9  647.65988
403.8  658.11047
403.7  661.5407
403.6  670.5814
403.5  674.49128
403.4  681.39535
403.3  682.03488
403.2  689.18605
403.1  697.04942
403  708.4157
402.9  708.76453
402.8  712.5436
402.7  713.06686
402.6  711.86047
402.5  715.31977
402.4  719.25872
402.3  715.98837
402.2  711.39535
402.1  707.76163
402  706.67151
401.9  696.77326
401.8  693.38663
401.7  688.96802
401.6  686.43895
401.5  676.80233
401.4  677.65988
401.3  667.71802
401.2  667.13663
401.1  650.53779
401  649.63663
400.9  646.19186
400.8  638.32849
400.7  633.28488
400.6  626.30814
400.5  619.62209
400.4  625.0436
400.3  624.36047
400.2  614.65116
400.1  622.15116
400  602.52907
399.9  607.96512
399.8  600.84302
399.7  601.99128
399.6  601.13372
399.5  601.70058
399.4  596.70058
399.3  594.09884
399.2  595.07267
399.1  591.5407
399  589.27326
398.9  594.79651
398.8  593.29942
398.7  593.51744
398.6  592.96512
398.5  593.0814
398.4  594.56395
398.3  590.9593
398.2  592.65988
398.1  592.4564
398  596.90407
397.9  594.98547
397.8  593.19767
397.7  588.72093
397.6  590.97384
397.5  589.79651
397.4  592.74709
397.3  590.75581
397.2  588.19767
397.1  592.96512
397  593.34302

# Region:            Si2p
# Acquisition Date:  04/22/22 03:27:11 UTC
# Analysis Method:   XPS
# Analyzer:          Phoibos 100 R6
# Analyzer Lens:     LargeArea:1.5kV
# Analyzer Slit:     1:0.2x20\B:open
# Scan Mode:         FixedAnalyzerTransmission
# Curves/Scan:       1
# Values/Curve:      111
# Dwell Time:        0.8
# Excitation Energy: 1486.61
# Binding Energy:    112
# Pass Energy:       30
# Bias Voltage:      90
# Detector Voltage:  2600
# Eff. Workfunction: 4.309
# Source:            X-Ray Dummy
# Comment:           
#
# Cycle: 0
# Number of Scans: 50
#
# Cycle: 0, Curve: 0
# Acquisition Date: 04/22/22 03:27:11 UTC
#
# ColumnLabels: energy counts/s
#
112  328.075
111.9  326.325
111.8  325.5
111.7  326.425
111.6  329
111.5  328.825
111.4  330.25
111.3  330.775
111.2  331.725
111.1  330
111  329.475
110.9  331.45
110.8  333.025
110.7  333.05
110.6  342.425
110.5  334.875
110.4  334.125
110.3  358.2
110.2  334.825
110.1  338.4
110  339.55
109.9  343.9
109.8  337.725
109.7  345.825
109.6  342.55
109.5  343.775
109.4  346.35
109.3  345
109.2  348.725
109.1  353.625
109  359.525
108.9  353.25
108.8  364.375
108.7  371.525
108.6  368.85
108.5  374.925
108.4  385.875
108.3  396.075
108.2  402.2
108.1  413.45
108  429.775
107.9  445.45
107.8  472.8
107.7  504.375
107.6  539.8
107.5  570.9
107.4  604.775
107.3  656.65
107.2  694.05
107.1  748.85
107  810.025
106.9  866.15
106.8  921.975
106.7  981.825
106.6  1041.05
106.5  1085.475
106.4  1132.775
106.3  1190.4
106.2  1227.125
106.1  1239.25
106  1255.975
105.9  1286.2
105.8  1237.375
105.7  1216.475
105.6  1182.7
105.5  1142.95
105.4  1085.75
105.3  1027.625
105.2  966.525
105.1  901.275
105  825.975
104.9  774.55
104.8  718.15
104.7  655
104.6  608.375
104.5  563.275
104.4  527.675
104.3  488.4
104.2  465.6
104.1  436.425
104  429.85
103.9  400.9
103.8  386.4
103.7  381.925
103.6  362.2
103.5  367.2
103.4  355.775
103.3  346.975
103.2  342.3
103.1  344.175
103  337.35
102.9  336.775
102.8  331.6
102.7  338.4
102.6  328.725
102.5  331.625
102.4  332.35
102.3  324.725
102.2  319.9
102.1  324.4
102  324.575
101.9  345.45
101.8  325.425
101.7  321.825
101.6  319.375
101.5  320.675
101.4  315.85
101.3  320.325
101.2  319.25
101.1  317.825
101  317.75

# Region:            C1s (2)
# Acquisition Date:  04/21/22 21:16:24 UTC
# Analysis Method:   XPS
# Analyzer:          Phoibos 100 R6
# Analyzer Lens:     LargeArea:1.5kV
# Analyzer Slit:     1:0.2x20\B:open
# Scan Mode:         FixedAnalyzerTransmission
# Curves/Scan:       1
# Values/Curve:      401
# Dwell Time:        0.8
# Excitation Energy: 1486.61
# Binding Energy:    310
# Pass Energy:       30
# Bias Voltage:      90
# Detector Voltage:  2600
# Eff. Workfunction: 4.309
# Source:            X-Ray Dummy
# Comment:           
#
# Cycle: 0
# Number of Scans: 10
#
# Cycle: 0, Curve: 0
# Acquisition Date: 04/21/22 21:16:24 UTC
#
# ColumnLabels: energy counts/s
#
310  637.875
309.9  633.25
309.8  626.125
309.7  628.25
309.6  633
309.5  633
309.4  643.75
309.3  624.875
309.2  631.625
309.1  623.75
309  641
308.9  627.25
308.8  645.625
308.7  634.375
308.6  624.375
308.5  625.875
308.4  631.5
308.3  642.375
308.2  634.875
308.1  627.25
308  620
307.9  642
307.8  634.375
307.7  634.125
307.6  652.75
307.5  631
307.4  626.75
307.3  625.25
307.2  623.875
307.1  619.25
307  641.125
306.9  632.125
306.8  642.5
306.7  629.5
306.6  623.875
306.5  631.875
306.4  627
306.3  632.125
306.2  642.5
306.1  609.125
306  621.625
305.9  632
305.8  626
305.7  637.625
305.6  621.875
305.5  629
305.4  646.875
305.3  626.125
305.2  613
305.1  639.25
305  631.75
304.9  642.625
304.8  643
304.7  610.25
304.6  613.875
304.5  628.25
304.4  622.75
304.3  638.375
304.2  631.25
304.1  610.375
304  603.25
303.9  609.125
303.8  628.875
303.7  636.5
303.6  633.125
303.5  613.625
303.4  634.125
303.3  616
303.2  620.75
303.1  623.875
303  630.875
302.9  624.25
302.8  610.75
302.7  616.25
302.6  621.5
302.5  610.125
302.4  626
302.3  624.75
302.2  626.5
302.1  642
302  642.875
301.9  613.25
301.8  626.25
301.7  624.75
301.6  612.75
301.5  628.5
301.4  616.625
301.3  628.875
301.2  622.875
301.1  606.875
301  607.875
300.9  616.125
300.8  633.125
300.7  606.25
300.6  633.625
300.5  625.875
300.4  611.875
300.3  624
300.2  620.625
300.1  624.125
300  611
299.9  636
299.8  621.875
299.7  614.25
299.6  618.875
299.5  632.25
299.4  603.125
299.3  614.875
299.2  611.125
299.1  618.625
299  614.5
298.9  607
298.8  603
298.7  608.625
298.6  626.5
298.5  895
298.4  636
298.3  623.375
298.2  612.5
298.1  625
298  618.625
297.9  635
297.8  604.75
297.7  611.75
297.6  615.375
297.5  598.125
297.4  599
297.3  619
297.2  603.5
297.1  607.375
297  620.625
296.9  627.25
296.8  612
296.7  607.375
296.6  614.5
296.5  611.875
296.4  607.625
296.3  734.125
296.2  616.125
296.1  603.75
296  591.625
295.9  615.875
295.8  626.25
295.7  605.375
295.6  628.125
295.5  610.25
295.4  593
295.3  623.75
295.2  619.875
295.1  611.125
295  616.5
294.9  610.25
294.8  627.375
294.7  619.125
294.6  619.25
294.5  606.25
294.4  624.75
294.3  612.375
294.2  619.875
294.1  608.875
294  625
293.9  612.375
293.8  627.5
293.7  639.875
293.6  608.125
293.5  638.375
293.4  625.625
293.3  629.5
293.2  626.125
293.1  636
293  650.25
292.9  639
292.8  636.625
292.7  633.625
292.6  617.625
292.5  651.625
292.4  644
292.3  647.875
292.2  656.875
292.1  662.75
292  658.25
291.9  686.125
291.8  685
291.7  678.125
291.6  681.75
291.5  692.875
291.4  699.875
291.3  715.875
291.2  691.5
291.1  720.125
291  740.625
290.9  733.5
290.8  724
290.7  750.25
290.6  751
290.5  759.625
290.4  792.375
290.3  780.375
290.2  823.125
290.1  813
290  831.375
289.9  827.625
289.8  873.125
289.7  891.375
289.6  886.25
289.5  917.75
289.4  948.25
289.3  957.5
289.2  996.125
289.1  1004.75
289  1026.5
288.9  1044.5
288.8  1085.625
288.7  1093.25
288.6  1118.75
288.5  1140.75
288.4  1162.625
288.3  1213.75
288.2  1210.625
288.1  1267.25
288  1266.875
287.9  1285.125
287.8  1292.125
287.7  1309.5
287.6  1314.75
287.5  1338.875
287.4  1318.125
287.3  1301.25
287.2  1289.875
287.1  1241.625
287  1219.375
286.9  1163.5
286.8  1134
286.7  1094.75
286.6  1039.375
286.5  983.5
286.4  916.375
286.3  873.875
286.2  841.375
286.1  803.25
286  764.875
285.9  743.875
285.8  713.5
285.7  692.375
285.6  677
285.5  657.5
285.4  627.125
285.3  614
285.2  624.75
285.1  621.5
285  606.5
284.9  612.625
284.8  593
284.7  607.125
284.6  586
284.5  593.5
284.4  591.25
284.3  588.375
284.2  585.375
284.1  600.375
284  585.625
283.9  599.625
283.8  580
283.7  593.25
283.6  585.125
283.5  588.875
283.4  586.375
283.3  570.25
283.2  585.625
283.1  585.25
283  574.875
282.9  579.25
282.8  602.125
282.7  572.625
282.6  575.625
282.5  581.5
282.4  595.5
282.3  597.75
282.2  599.625
282.1  592.875
282  599.5
281.9  611.375
281.8  576.75
281.7  598.125
281.6  596.75
281.5  594.375
281.4  610.75
281.3  580.25
281.2  581.625
281.1  588.125
281  589.75
280.9  584.125
280.8  597.5
280.7  604.75
280.6  575.625
280.5  596.125
280.4  592.125
280.3  582.5
280.2  589.25
280.1  584.125
280  581.625
279.9  591.75
279.8  595.25
279.7  606.5
279.6  588.75
279.5  599.25
279.4  602.5
279.3  603.875
279.2  605.625
279.1  608.625
279  591.625
278.9  608.125
278.8  624.625
278.7  605.875
278.6  613.75
278.5  603.5
278.4  612.625
278.3  616
278.2  620.125
278.1  635.625
278  626.875
277.9  617.25
277.8  626.5
277.7  615.5
277.6  622
277.5  620.375
277.4  608.625
277.3  610.625
277.2  643.25
277.1  623.5
277  626.25
276.9  621.75
276.8  615.125
276.7  608.75
276.6  609.625
276.5  609.25
276.4  611.25
276.3  605.25
276.2  598.75
276.1  592.875
276  614.25
275.9  611.125
275.8  590
275.7  602.125
275.6  604.875
275.5  589.5
275.4  592.375
275.3  600.375
275.2  580.625
275.1  595.5
275  592.25
274.9  588.875
274.8  588.25
274.7  582.625
274.6  593.25
274.5  587.25
274.4  589.625
274.3  586.75
274.2  593.375
274.1  613.625
274  593.75
273.9  588.25
273.8  618.625
273.7  606
273.6  602.625
273.5  599.25
273.4  601.25
273.3  606
273.2  619.5
273.1  626.625
273  627.5
272.9  609.5
272.8  611.5
272.7  628.875
272.6  635.625
272.5  633.5
272.4  639.875
272.3  629.625
272.2  672.5
272.1  651.125
272  656.625
271.9  667.125
271.8  656.375
271.7  649.5
271.6  666.75
271.5  649.875
271.4  640.375
271.3  644.375
271.2  628.375
271.1  649
271  630.625
270.9  640
270.8  638.625
270.7  633.125
270.6  621.5
270.5  617.875
270.4  625
270.3  631.625
270.2  621.5
270.1  605.25
270  609.375

# Region:            O1s (2)
# Acquisition Date:  04/21/22 21:21:49 UTC
# Analysis Method:   XPS
# Analyzer:          Phoibos 100 R6
# Analyzer Lens:     LargeArea:1.5kV
# Analyzer Slit:     1:0.2x20\B:open
# Scan Mode:         FixedAnalyzerTransmission
# Curves/Scan:       1
# Values/Curve:      401
# Dwell Time:        0.8
# Excitation Energy: 1486.61
# Binding Energy:    558
# Pass Energy:       30
# Bias Voltage:      90
# Detector Voltage:  2600
# Eff. Workfunction: 4.309
# Source:            X-Ray Dummy
# Comment:           
#
# Cycle: 0
# Number of Scans: 10
#
# Cycle: 0, Curve: 0
# Acquisition Date: 04/21/22 21:21:49 UTC
#
# ColumnLabels: energy counts/s
#
558  1838.625
557.9  1852.625
557.8  1878.625
557.7  1859.75
557.6  1837
557.5  1836.25
557.4  1823.5
557.3  1853.625
557.2  1829
557.1  1815.5
557  1818.625
556.9  1835.875
556.8  1809.75
556.7  1805.125
556.6  1801.125
556.5  1793.625
556.4  1800.375
556.3  1763.25
556.2  1773.625
556.1  1771.5
556  1720.375
555.9  1742.5
555.8  1744.25
555.7  1713.375
555.6  1701.5
555.5  1716.375
555.4  1663.5
555.3  1689.125
555.2  1687.375
555.1  1680.375
555  1647.625
554.9  1640
554.8  1652.375
554.7  1627.125
554.6  1635.625
554.5  1611.125
554.4  1604.375
554.3  1609
554.2  1602.25
554.1  1564
554  1567.125
553.9  1586.375
553.8  1551.25
553.7  1531.125
553.6  1561.625
553.5  1560.375
553.4  1532.125
553.3  1517.375
553.2  1493.5
553.1  1527.625
553  1527.5
552.9  1487.25
552.8  1497.25
552.7  1499.5
552.6  1479.75
552.5  1465.25
552.4  1486.5
552.3  1484.625
552.2  1489.625
552.1  1461.125
552  1486.75
551.9  1473.125
551.8  1455.75
551.7  1469.75
551.6  1452.875
551.5  1413.5
551.4  1439.125
551.3  1448.75
551.2  1432.75
551.1  1418.875
551  1436.125
550.9  1419.875
550.8  1452
550.7  1427.25
550.6  1423.5
550.5  1401.125
550.4  1437.875
550.3  1392.25
550.2  1407.375
550.1  1383.125
550  1391.25
549.9  1403.875
549.8  1372
549.7  1359.375
549.6  1358.25
549.5  1385.625
549.4  1379.5
549.3  1343.5
549.2  1325
549.1  1332
549  1309.25
548.9  1328.625
548.8  1327.875
548.7  1318.125
548.6  1312.75
548.5  1297.125
548.4  1300
548.3  1309.25
548.2  1291
548.1  1259.125
548  1275.875
547.9  1272.625
547.8  1270.875
547.7  1286.375
547.6  1263
547.5  1222.25
547.4  1256.375
547.3  1240.75
547.2  1219.875
547.1  1218.75
547  1206.75
546.9  1227.5
546.8  1215.375
546.7  1167
546.6  1194
546.5  1192.625
546.4  1194.375
546.3  1159
546.2  1164
546.1  1156.75
546  1136.75
545.9  1108.75
545.8  1140.375
545.7  1116
545.6  1087.125
545.5  1111.125
545.4  1098.25
545.3  1092.25
545.2  1069
545.1  1056.375
545  1036.5
544.9  1031
544.8  1032.75
544.7  1024.875
544.6  1015.5
544.5  1007.875
544.4  1009.25
544.3  1003.625
544.2  978.75
544.1  998.125
544  964.875
543.9  989.375
543.8  955.75
543.7  949.125
543.6  926
543.5  950.25
543.4  945.625
543.3  939.375
543.2  952.375
543.1  934.875
543  934.125
542.9  920.625
542.8  943.75
542.7  929.875
542.6  934.125
542.5  922.75
542.4  914.75
542.3  932.75
542.2  911.625
542.1  918.125
542  924.5
541.9  907.5
541.8  915.875
541.7  918.5
541.6  922.125
541.5  919.75
541.4  925.5
541.3  927.25
541.2  921.125
541.1  906.125
541  921.25
540.9  933.25
540.8  928.75
540.7  925.375
540.6  924
540.5  922.75
540.4  934.125
540.3  928.625
540.2  955.875
540.1  947.375
540  969
539.9  986.375
539.8  967.25
539.7  977.125
539.6  980.625
539.5  1008.25
539.4  994
539.3  1017.75
539.2  1011.25
539.1  1035.125
539  1038
538.9  1031.625
538.8  1066.625
538.7  1099.25
538.6  1081.5
538.5  1085.375
538.4  1116.875
538.3  1149.25
538.2  1165.5
538.1  1162.75
538  1216.125
537.9  1237.25
537.8  1286.125
537.7  1330.25
537.6  1391.375
537.5  1445.625
537.4  1539.5
537.3  1649
537.2  1776.875
537.1  1909.125
537  2081.5
536.9  2239.125
536.8  2444.375
536.7  2729.75
536.6  3005.875
536.5  3288.375
536.4  3598.625
536.3  3951.125
536.2  4426.875
536.1  4734.5
536  5111
535.9  5475.375
535.8  5863.125
535.7  6121
535.6  6388
535.5  6579.25
535.4  6779.125
535.3  6856.375
535.2  6897.25
535.1  6778.25
535  6584
534.9  6370.25
534.8  6067.5
534.7  5776.75
534.6  5397.875
534.5  4963.625
534.4  4582.125
534.3  4205.25
534.2  3777.75
534.1  3404.625
534  3067.875
533.9  2767.75
533.8  2486
533.7  2291.125
533.6  2062.5
533.5  1905.75
533.4  1723.25
533.3  1596.125
533.2  1485
533.1  1415.25
533  1349.625
532.9  1237.75
532.8  1193.25
532.7  1155.875
532.6  1119.75
532.5  1061
532.4  1033.5
532.3  1042.625
532.2  979.625
532.1  964.75
532  937
531.9  929.375
531.8  922.625
531.7  897.5
531.6  901.25
531.5  888.375
531.4  874.125
531.3  875.5
531.2  846.875
531.1  851.5
531  840.75
530.9  839.875
530.8  820.75
530.7  825.75
530.6  817.875
530.5  821.75
530.4  819.5
530.3  833.5
530.2  823.5
530.1  832.125
530  831.5
529.9  811.125
529.8  797.625
529.7  815.5
529.6  810.75
529.5  808.875
529.4  793.25
529.3  814.875
529.2  814.25
529.1  795.875
529  791
528.9  791.5
528.8  796.5
528.7  795.75
528.6  782.5
528.5  797.75
528.4  782.875
528.3  785
528.2  789.125
528.1  780.25
528  803.875
527.9  773.625
527.8  775
527.7  788.75
527.6  797.875
527.5  804.75
527.4  814.875
527.3  829.625
527.2  837.625
527.1  856.875
527  873.75
526.9  896.125
526.8  895.875
526.7  918.625
526.6  957
526.5  982.375
526.4  1001.5
526.3  1033.875
526.2  1060.875
526.1  1076.75
526  1098.25
525.9  1099.75
525.8  1142.5
525.7  1169.25
525.6  1150.625
525.5  1167.5
525.4  1188.375
525.3  1164.375
525.2  1157.125
525.1  1150.125
525  1117.75
524.9  1114.625
524.8  1108.5
524.7  1067
524.6  1063.25
524.5  1040.375
524.4  1027.75
524.3  1022
524.2  1022.875
524.1  1029.25
524  980.625
523.9  1002.75
523.8  983
523.7  1072.875
523.6  987.625
523.5  966.25
523.4  955.625
523.3  946.5
523.2  968.5
523.1  917
523  925.625
522.9  880
522.8  880.875
522.7  878.75
522.6  846.875
522.5  831.625
522.4  834.125
522.3  792.25
522.2  796.75
522.1  781.125
522  786.25
521.9  775
521.8  765.25
521.7  756.5
521.6  737.875
521.5  749.75
521.4  742.5
521.3  732
521.2  728.875
521.1  717.625
521  723.125
520.9  707.5
520.8  714.75
520.7  711.875
520.6  715.125
520.5  720
520.4  706.75
520.3  699.5
520.2  708.125
520.1  712.75
520  710.25
519.9  683.25
519.8  702.5
519.7  690.625
519.6  696.875
519.5  686.875
519.4  705
519.3  712.625
519.2  684.125
519.1  690.375
519  690.625
518.9  686.875
518.8  688.25
518.7  698
518.6  683.75
518.5  684
518.4  684.875
518.3  670
518.2  686.75
518.1  696.5
518  692.875

# Region:            N1s (2)
# Acquisition Date:  04/21/22 21:26:01 UTC
# Analysis Method:   XPS
# Analyzer:          Phoibos 100 R6
# Analyzer Lens:     LargeArea:1.5kV
# Analyzer Slit:     1:0.2x20\B:open
# Scan Mode:         FixedAnalyzerTransmission
# Curves/Scan:       1
# Values/Curve:      311
# Dwell Time:        0.8
# Excitation Energy: 1486.61
# Binding Energy:    419
# Pass Energy:       30
# Bias Voltage:      90
# Detector Voltage:  2600
# Eff. Workfunction: 4.309
# Source:            X-Ray Dummy
# Comment:           
#
# Cycle: 0
# Number of Scans: 10
#
# Cycle: 0, Curve: 0
# Acquisition Date: 04/21/22 21:26:01 UTC
#
# ColumnLabels: energy counts/s
#
419  604.5
418.9  603.75
418.8  599.375
418.7  618.5
418.6  603.875
418.5  612.5
418.4  624.625
418.3  601.375
418.2  614.125
418.1  608.25
418  599
417.9  590.25
417.8  615.5
417.7  612.25
417.6  615.875
417.5  603.25
417.4  622.5
417.3  598.75
417.2  609.25
417.1  602.75
417  615.375
416.9  606.375
416.8  606.5
416.7  603
416.6  597.5
416.5  600.5
416.4  591.625
416.3  601.25
416.2  594.875
416.1  595.125
416  608.875
415.9  617.625
415.8  625.5
415.7  600.125
415.6  619.125
415.5  603.625
415.4  609.125
415.3  615.75
415.2  602.5
415.1  617
415  595.75
414.9  605.5
414.8  601.75
414.7  595
414.6  601
414.5  601.125
414.4  589.75
414.3  605.75
414.2  599
414.1  599.625
414  609.875
413.9  608.5
413.8  597.375
413.7  604.5
413.6  600.875
413.5  598.5
413.4  603.375
413.3  608.375
413.2  590.25
413.1  580.875
413  603.25
412.9  600.125
412.8  617.125
412.7  593.125
412.6  600.5
412.5  607.625
412.4  605
412.3  605.375
412.2  598.375
412.1  609.125
412  595.5
411.9  578.375
411.8  614.125
411.7  595.625
411.6  604.375
411.5  604.25
411.4  586
411.3  614.75
411.2  597.25
411.1  617.5
411  607
410.9  605
410.8  599.25
410.7  591.875
410.6  609.875
410.5  599.75
410.4  616.75
410.3  608.625
410.2  622.875
410.1  603.5
410  597
409.9  598.875
409.8  595.625
409.7  617
409.6  603.375
409.5  596
409.4  582.75
409.3  616.125
409.2  597.75
409.1  585
409  625.5
408.9  597
408.8  593.125
408.7  604.125
408.6  609.125
408.5  603.875
408.4  585.5
408.3  593.875
408.2  596.625
408.1  607.125
408  601.375
407.9  610.25
407.8  596.25
407.7  596.25
407.6  595
407.5  588.625
407.4  607.875
407.3  601.75
407.2  597.375
407.1  614.5
407  605.375
406.9  608.5
406.8  609.625
406.7  600.25
406.6  705
406.5  600.5
406.4  607
406.3  618.5
406.2  609.625
406.1  595.875
406  612.875
405.9  589
405.8  612
405.7  608.375
405.6  607.375
405.5  611.5
405.4  606.125
405.3  607
405.2  624.75
405.1  610.25
405  612.625
404.9  618.875
404.8  614.375
404.7  603.625
404.6  622.5
404.5  610
404.4  634.875
404.3  636.75
404.2  634.625
404.1  649
404  637.5
403.9  656.875
403.8  655.75
403.7  677.125
403.6  673
403.5  690
403.4  687.625
403.3  705.125
403.2  700
403.1  701
403  706.625
402.9  718.375
402.8  699.875
402.7  708.75
402.6  730
402.5  705.75
402.4  716.125
402.3  718.5
402.2  710.125
402.1  714.125
402  702
401.9  702.375
401.8  705.625
401.7  704.75
401.6  687.25
401.5  684.25
401.4  671.5
401.3  657.25
401.2  659
401.1  670
401  653
400.9  650.625
400.8  640.625
400.7  644
400.6  623.875
400.5  626
400.4  629.5
400.3  621.875
400.2  620
400.1  610.125
400  600.5
399.9  625.875
399.8  592.25
399.7  610.625
399.6  607.125
399.5  609.75
399.4  618.25
399.3  611.5
399.2  593.75
399.1  589.875
399  589.5
398.9  598.5
398.8  600.5
398.7  601.625
398.6  598.75
398.5  602.5
398.4  598.25
398.3  582
398.2  587
398.1  596.625
398  597.25
397.9  588.25
397.8  603.625
397.7  592.25
397.6  585.625
397.5  587.375
397.4  607.625
397.3  594.375
397.2  581.25
397.1  601.125
397  578.375
396.9  591.375
396.8  581.25
396.7  602
396.6  594.5
396.5  595.25
396.4  578.25
396.3  591.75
396.2  571.5
396.1  600.75
396  578.875
395.9  585
395.8  597.375
395.7  602.125
395.6  596.25
395.5  598.5
395.4  602.375
395.3  599.25
395.2  595.5
395.1  588.625
395  606.625
394.9  594.75
394.8  592.125
394.7  595.25
394.6  602.875
394.5  588.875
394.4  600.125
394.3  585.25
394.2  588
394.1  601.875
394  600.875
393.9  594
393.8  599.75
393.7  593.625
393.6  595.5
393.5  590.5
393.4  607
393.3  597.125
393.2  598.75
393.1  588.375
393  591.75
392.9  598.375
392.8  598.75
392.7  607.25
392.6  602.75
392.5  610.875
392.4  573.375
392.3  614.5
392.2  903.125
392.1  598.875
392  601
391.9  606.75
391.8  589.5
391.7  600.625
391.6  600.25
391.5  602.875
391.4  599.625
391.3  602
391.2  610.375
391.1  618.625
391  599.375
390.9  606
390.8  605.125
390.7  592.25
390.6  587.5
390.5  606.375
390.4  596.75
390.3  596.25
390.2  600.5
390.1  602.375
390  609.625
389.9  602.875
389.8  593.875
389.7  582.875
389.6  590.25
389.5  589.5
389.4  604
389.3  602.625
389.2  586.75
389.1  596.875
389  593.5
388.9  597.25
388.8  774.5
388.7  591.25
388.6  589.5
388.5  588.125
388.4  602.625
388.3  600
388.2  581.25
388.1  579.5
388  599.75

