# Created by:        SpecsLab Prodigy, Version 4.74.2-r95700
#
# XY-Serializer Export Settings:
#   Comment Prefix:           #
#   Output Meta Data:         yes
#   Energy Axis:              Binding Energy
#   Count Rate:               Counts per Second
#   Separate Scan Data:       no
#   Separate Channel Data:    no
#   External Channel Data:    yes
#   Transmission Function:    no
#   Error Bar:                no
#   Operation Results:        yes
#   Time Zone Format:         UTC
#
# Group:             after 0.3A annealing
#
# Region:            overview
# Spectrum ID:       15
# Acquisition Date:  06/23/22 14:25:29 UTC
# Analysis Method:   XPS
# Analyzer:          Analyzer
# Analyzer Lens:     MediumArea:1.5kV
# Analyzer Slit:     4:3x20\B:open
# Scan Mode:         FixedAnalyzerTransmission
# Curves/Scan:       1
# Values/Curve:      941
# Dwell Time:        0.1
# Excitation Energy: 1486.71
# Binding Energy:    936.71
# Pass Energy:       50
# Bias Voltage:      -1
# Detector Voltage:  1800
# Eff. Workfunction: 4.498
# Source:            XR 50 MF (UXC1000)
# Comment:
# OrdinateRange:     [-7.000000, 7.000000]
#
# Cycle: 0
# Number of Scans: 1
#
# Cycle: 0, Curve: 0
# Acquisition Date: 06/23/22 14:25:29 UTC
#
# ColumnLabels: energy counts/s
#
936.71  5.2263342
935.71  6.0244215
934.71  6.7579904
933.71  5.5772583
932.71  5.4614266
931.71  6.8747844
930.71  6.5520539
929.71  5.7894251
928.71  6.8767368
927.71  5.7542859
926.71  7.3536863
925.71  6.1183096
924.71  5.2057322
923.71  5.7882399
922.71  7.6592346
921.71  6.721718
920.71  6.1895779
919.71  5.8997072
918.71  5.5650916
917.71  5.5097249
916.71  6.6823949
915.71  6.1116137
914.71  5.8107289
913.71  6.6532938
912.71  6.9830768
911.71  6.5583917
910.71  5.7644078
909.71  6.6463548
908.71  6.2702013
907.71  6.2271947
906.71  5.9066931
905.71  6.2292226
904.71  7.1507634
903.71  5.8857755
902.71  6.408705
901.71  6.8272934
900.71  6.2386972
899.71  7.0396553
898.71  5.9753496
897.71  6.3649612
896.71  6.8374888
895.71  6.9643709
894.71  6.6952085
893.71  6.5032788
892.71  6.9127174
891.71  7.1948488
890.71  6.3444365
889.71  5.8178003
888.71  5.8984724
887.71  6.8688343
886.71  7.4389414
885.71  7.81725
884.71  7.1877392
883.71  5.7618518
882.71  6.3088839
881.71  5.6821076
880.71  7.0939009
879.71  7.7600161
878.71  6.273614
877.71  6.2416522
876.71  5.6660974
875.71  6.8512273
874.71  5.8147751
873.71  6.1892062
872.71  7.8828714
871.71  6.3196161
870.71  7.3769765
869.71  7.6760454
868.71  5.7046477
867.71  5.711171
866.71  7.1402919
865.71  7.1177025
864.71  6.7563849
863.71  5.9849788
862.71  5.7508031
861.71  6.6824263
860.71  6.224508
859.71  5.764841
858.71  6.7931708
857.71  6.7464447
856.71  6.520505
855.71  6.6888393
854.71  7.1349424
853.71  8.2129772
852.71  7.0821291
851.71  6.2079257
850.71  7.1619602
849.71  8.537552
848.71  6.6777817
847.71  6.7080787
846.71  6.5615515
845.71  7.1015615
844.71  6.4939755
843.71  6.6554643
842.71  7.2645208
841.71  6.4788674
840.71  7.2783741
839.71  6.7182925
838.71  7.2449747
837.71  7.1655302
836.71  6.8060827
835.71  6.6826497
834.71  7.0695946
833.71  7.6265373
832.71  8.392872
831.71  6.9423997
830.71  8.4723847
829.71  8.7188322
828.71  8.2307771
827.71  6.6532479
826.71  6.7924071
825.71  7.2274059
824.71  7.5496722
823.71  6.0448728
822.71  8.4729464
821.71  7.4523326
820.71  7.5452992
819.71  7.4822528
818.71  7.3126966
817.71  6.3473699
816.71  7.794041
815.71  9.118083
814.71  7.8662422
813.71  7.2554022
812.71  7.8587838
811.71  8.7228855
810.71  7.9005388
809.71  7.6213793
808.71  7.4293896
807.71  8.012798
806.71  7.9290832
805.71  8.2455381
804.71  7.4124536
803.71  8.4718905
802.71  8.3465614
801.71  9.04019
800.71  7.5187211
799.71  7.0726155
798.71  8.3784075
797.71  9.418786
796.71  10.508347
795.71  11.26219
794.71  9.1203678
793.71  8.3013878
792.71  7.521608
791.71  7.8499308
790.71  6.9445312
789.71  6.9113254
788.71  7.4700763
787.71  7.0594811
786.71  6.7628004
785.71  6.8468833
784.71  9.2360028
783.71  8.160034
782.71  8.5519297
781.71  11.805956
780.71  11.15064
779.71  7.9412295
778.71  7.4506748
777.71  6.8771193
776.71  5.8785475
775.71  7.3080581
774.71  8.4323561
773.71  8.0363973
772.71  7.904518
771.71  8.2976361
770.71  7.1481282
769.71  8.1580644
768.71  7.5456973
767.71  8.488168
766.71  9.3400915
765.71  8.2865568
764.71  8.2931881
763.71  9.5884991
762.71  8.3459895
761.71  9.7058996
760.71  8.367077
759.71  9.0725454
758.71  7.5434774
757.71  7.8979611
756.71  7.6364515
755.71  8.2117322
754.71  8.6223497
753.71  8.0316315
752.71  8.2579515
751.71  9.7464737
750.71  10.627655
749.71  9.6058265
748.71  8.4677551
747.71  7.8345871
746.71  8.6882648
745.71  9.4837678
744.71  8.3306922
743.71  8.5830799
742.71  7.9392663
741.71  7.6888811
740.71  8.7700435
739.71  8.06229
738.71  8.5985207
737.71  9.6423312
736.71  9.1181539
735.71  10.039519
734.71  9.7048178
733.71  9.621115
732.71  8.9451033
731.71  9.4111526
730.71  8.5357027
729.71  8.8574359
728.71  8.7671631
727.71  9.0947278
726.71  8.2060002
725.71  7.9058727
724.71  8.6673142
723.71  7.7447028
722.71  8.7781421
721.71  9.6475792
720.71  8.9541069
719.71  8.6986334
718.71  8.9440931
717.71  8.4500143
716.71  10.010389
715.71  9.5058521
714.71  9.4341736
713.71  9.2198753
712.71  7.7408968
711.71  8.8111181
710.71  8.5468083
709.71  8.0703627
708.71  9.022643
707.71  8.2360329
706.71  8.8764138
705.71  10.732461
704.71  8.4232001
703.71  7.7504079
702.71  8.7541234
701.71  8.7178124
700.71  10.210615
699.71  10.877049
698.71  9.3430493
697.71  8.9916379
696.71  9.052186
695.71  10.00989
694.71  10.949703
693.71  8.9464813
692.71  9.8462846
691.71  8.7229661
690.71  9.3353948
689.71  9.0797933
688.71  9.2852942
687.71  9.8863308
686.71  10.443785
685.71  9.5977139
684.71  8.2716227
683.71  10.265662
682.71  9.81054
681.71  9.0684195
680.71  9.8186905
679.71  10.137325
678.71  9.701222
677.71  8.2609214
676.71  9.9099789
675.71  9.2420381
674.71  9.4041372
673.71  10.693412
672.71  9.9782671
671.71  9.4062266
670.71  9.0607896
669.71  9.2770099
668.71  9.7948249
667.71  8.8816742
666.71  8.4649369
665.71  8.498829
664.71  8.8231279
663.71  9.6648269
662.71  9.4533144
661.71  10.339632
660.71  9.6985015
659.71  10.701515
658.71  10.052531
657.71  9.1720481
656.71  9.086912
655.71  11.068902
654.71  9.7634925
653.71  10.148598
652.71  10.576438
651.71  10.257098
650.71  10.625088
649.71  10.082727
648.71  10.10367
647.71  9.4016864
646.71  10.938509
645.71  10.154324
644.71  12.091243
643.71  12.037592
642.71  10.303134
641.71  12.18478
640.71  11.168322
639.71  9.9162604
638.71  10.404938
637.71  10.982116
636.71  11.297245
635.71  11.789322
634.71  10.056025
633.71  9.9156342
632.71  10.575563
631.71  9.2538177
630.71  9.2729812
629.71  9.3444951
628.71  9.9764067
627.71  10.109711
626.71  11.475521
625.71  11.065937
624.71  9.4901555
623.71  8.9207754
622.71  11.108054
621.71  11.013856
620.71  12.585425
619.71  12.265134
618.71  10.861338
617.71  11.030981
616.71  11.109025
615.71  11.678564
614.71  10.547335
613.71  9.778533
612.71  11.683469
611.71  11.248205
610.71  10.263172
609.71  10.927613
608.71  10.091538
607.71  10.849226
606.71  10.049124
605.71  11.353707
604.71  11.965537
603.71  11.424366
602.71  11.167285
601.71  10.311983
600.71  12.45356
599.71  12.166929
598.71  10.933013
597.71  11.449174
596.71  11.755812
595.71  12.755327
594.71  11.050751
593.71  10.933991
592.71  11.134732
591.71  11.102599
590.71  10.413663
589.71  11.218851
588.71  11.603995
587.71  11.549144
586.71  10.749021
585.71  9.9204081
584.71  11.788422
583.71  10.717121
582.71  12.480618
581.71  11.478461
580.71  10.183127
579.71  11.600548
578.71  11.614492
577.71  11.0319
576.71  11.296971
575.71  11.541873
574.71  11.576763
573.71  11.11867
572.71  11.346374
571.71  11.04898
570.71  11.706215
569.71  12.556011
568.71  13.3104
567.71  12.356888
566.71  12.210876
565.71  11.455128
564.71  11.608161
563.71  11.094517
562.71  10.832231
561.71  11.789933
560.71  9.8369205
559.71  12.546155
558.71  10.934255
557.71  11.024651
556.71  10.572594
555.71  12.823547
554.71  11.089089
553.71  10.449679
552.71  10.884292
551.71  11.592216
550.71  11.102793
549.71  9.495775
548.71  10.708122
547.71  11.966265
546.71  11.302547
545.71  12.517111
544.71  10.917682
543.71  10.793738
542.71  10.58118
541.71  10.697287
540.71  11.065754
539.71  9.5495343
538.71  8.8828669
537.71  9.5935226
536.71  10.364872
535.71  11.937853
534.71  13.352445
533.71  15.644686
532.71  17.212026
531.71  19.049382
530.71  19.666971
529.71  11.953996
528.71  11.79165
527.71  8.8982204
526.71  9.6549479
525.71  9.3159289
524.71  9.062086
523.71  8.9580621
522.71  9.6228836
521.71  8.4122665
520.71  10.491217
519.71  10.600706
518.71  8.6724349
517.71  8.9770688
516.71  9.1014229
515.71  9.4399203
514.71  10.451234
513.71  8.8953686
512.71  9.0990706
511.71  10.210692
510.71  10.722483
509.71  8.196153
508.71  9.4024441
507.71  9.9826128
506.71  9.3056467
505.71  9.5590856
504.71  9.3002005
503.71  9.2127935
502.71  9.2641681
501.71  10.46232
500.71  10.62
499.71  10.256675
498.71  10.069246
497.71  9.7878645
496.71  9.5888861
495.71  9.048629
494.71  10.098292
493.71  10.411837
492.71  9.4641095
491.71  9.3946217
490.71  8.5432093
489.71  8.4634624
488.71  9.2657762
487.71  9.8428098
486.71  9.507376
485.71  9.6423091
484.71  9.285971
483.71  9.109528
482.71  9.1331287
481.71  10.656575
480.71  9.3493787
479.71  9.1887136
478.71  10.868517
477.71  9.5069784
476.71  9.8993531
475.71  9.0681888
474.71  9.242487
473.71  10.673679
472.71  10.684405
471.71  10.232534
470.71  10.089682
469.71  10.662335
468.71  11.98599
467.71  10.62065
466.71  9.775336
465.71  10.242515
464.71  9.6196483
463.71  8.8604951
462.71  10.186194
461.71  9.5201008
460.71  9.5063302
459.71  10.831385
458.71  10.896194
457.71  10.627066
456.71  10.92989
455.71  10.484537
454.71  11.598017
453.71  9.8923026
452.71  9.1188679
451.71  11.67703
450.71  10.547454
449.71  9.1908053
448.71  10.513652
447.71  10.131305
446.71  9.8180212
445.71  9.5291968
444.71  9.2084269
443.71  9.4593509
442.71  9.4957206
441.71  9.3762277
440.71  10.447315
439.71  9.631317
438.71  9.103497
437.71  8.4531436
436.71  9.4694465
435.71  9.3021217
434.71  9.0271476
433.71  8.969921
432.71  9.3068606
431.71  8.2626501
430.71  8.3717729
429.71  11.392581
428.71  8.9749762
427.71  9.3067198
426.71  8.7001339
425.71  8.5160225
424.71  8.2787807
423.71  10.368813
422.71  9.7532663
421.71  9.2443152
420.71  10.63339
419.71  9.7118368
418.71  9.7055202
417.71  8.2732339
416.71  8.9708926
415.71  9.4032616
414.71  10.129807
413.71  9.7603902
412.71  10.038023
411.71  9.3822856
410.71  9.7286537
409.71  8.8742676
408.71  9.4180254
407.71  10.635477
406.71  10.646141
405.71  11.065104
404.71  11.825506
403.71  10.181912
402.71  9.4970918
401.71  8.497995
400.71  9.0031173
399.71  10.418948
398.71  10.829691
397.71  9.3096015
396.71  9.622012
395.71  9.343013
394.71  9.4626111
393.71  9.077958
392.71  9.1485507
391.71  9.5508937
390.71  8.0901085
389.71  10.084642
388.71  9.70522
387.71  10.07837
386.71  11.442732
385.71  9.0962868
384.71  9.655398
383.71  9.338916
382.71  9.8311464
381.71  8.3935765
380.71  8.7014533
379.71  8.5378695
378.71  9.7143776
377.71  9.9416164
376.71  8.9993194
375.71  9.3110966
374.71  8.9038314
373.71  9.2450736
372.71  9.8213403
371.71  9.7457749
370.71  9.932449
369.71  10.072562
368.71  10.168209
367.71  9.7419395
366.71  9.2515609
365.71  8.8372161
364.71  9.1610015
363.71  9.2196412
362.71  8.8957143
361.71  9.8293373
360.71  9.5670087
359.71  9.3059447
358.71  10.394307
357.71  10.241794
356.71  10.042887
355.71  10.11107
354.71  9.250127
353.71  8.5861672
352.71  10.595513
351.71  9.1062334
350.71  9.4402421
349.71  10.052866
348.71  8.993471
347.71  8.8475866
346.71  8.0762144
345.71  8.4875992
344.71  9.6177368
343.71  10.272031
342.71  10.018253
341.71  9.5281984
340.71  9.439634
339.71  8.5440035
338.71  10.192963
337.71  9.9844518
336.71  10.37989
335.71  9.7325083
334.71  9.1872961
333.71  8.8273122
332.71  9.1461788
331.71  9.5900277
330.71  10.319749
329.71  10.085662
328.71  10.726663
327.71  9.476094
326.71  9.9675343
325.71  10.445396
324.71  9.3257855
323.71  8.7373694
322.71  8.2606133
321.71  9.446651
320.71  9.0137756
319.71  11.177279
318.71  11.705771
317.71  10.608265
316.71  9.82944
315.71  10.49616
314.71  10.892698
313.71  10.772234
312.71  10.377725
311.71  10.534504
310.71  10.447433
309.71  9.5352178
308.71  8.9172918
307.71  9.550365
306.71  10.479635
305.71  11.107418
304.71  10.897423
303.71  9.8374765
302.71  10.462237
301.71  9.7900302
300.71  9.1921941
299.71  8.9904514
298.71  8.4158455
297.71  9.5390807
296.71  9.6401966
295.71  8.7106836
294.71  8.2349322
293.71  9.2394854
292.71  9.3218025
291.71  9.0658724
290.71  9.4183784
289.71  10.568536
288.71  11.165711
287.71  17.488903
286.71  27.419868
285.71  22.388776
284.71  9.9509875
283.71  8.4646609
282.71  8.3671699
281.71  8.0248131
280.71  7.7423257
279.71  8.2829013
278.71  7.7540925
277.71  7.9304891
276.71  8.1012277
275.71  8.7966164
274.71  8.1296053
273.71  8.5762687
272.71  8.4608437
271.71  7.2850244
270.71  8.8652588
269.71  9.3241005
268.71  7.9730809
267.71  7.6977981
266.71  7.9994974
265.71  7.3288793
264.71  8.0030396
263.71  8.4290743
262.71  9.7133568
261.71  7.2791297
260.71  7.5083574
259.71  8.1581608
258.71  8.2037741
257.71  8.4730152
256.71  7.53975
255.71  8.4866868
254.71  10.183665
253.71  7.4038535
252.71  8.5313258
251.71  8.1729982
250.71  8.4877807
249.71  7.6387075
248.71  7.9867954
247.71  8.230913
246.71  7.1180212
245.71  7.5589728
244.71  8.0139074
243.71  8.6083733
242.71  9.2436716
241.71  9.0808187
240.71  8.4751589
239.71  7.3066924
238.71  5.7726601
237.71  6.5745027
236.71  7.0552676
235.71  5.4881397
234.71  6.6112333
233.71  7.1711846
232.71  7.5606936
231.71  9.1562414
230.71  9.917846
229.71  8.1547781
228.71  6.6241238
227.71  6.2683004
226.71  6.084018
225.71  5.1828069
224.71  4.789931
223.71  4.9730888
222.71  5.3530473
221.71  4.8271026
220.71  4.8410184
219.71  5.0962095
218.71  5.5675259
217.71  3.8968724
216.71  4.0817814
215.71  3.9340664
214.71  4.4263012
213.71  4.7362981
212.71  3.99812
211.71  3.4229884
210.71  3.8027354
209.71  4.5416051
208.71  4.0098509
207.71  4.3433733
206.71  4.3114095
205.71  4.1173694
204.71  3.7202966
203.71  4.4924235
202.71  4.6245072
201.71  4.3874124
200.71  3.9669686
199.71  4.2084894
198.71  4.1538043
197.71  4.0976646
196.71  4.0756119
195.71  3.8047932
194.71  3.8764607
193.71  4.1930715
192.71  4.0426441
191.71  3.5820744
190.71  4.2455193
189.71  3.5682229
188.71  4.3423164
187.71  5.0005391
186.71  4.2877296
185.71  3.6280035
184.71  4.0459766
183.71  4.5072558
182.71  4.0210122
181.71  4.0239687
180.71  4.3110495
179.71  3.8016478
178.71  4.0386392
177.71  4.4223882
176.71  3.7431851
175.71  4.3156053
174.71  3.8586885
173.71  3.6658953
172.71  4.0862548
171.71  3.7614713
170.71  4.5333342
169.71  4.4606481
168.71  4.5011477
167.71  3.8246256
166.71  4.2567854
165.71  3.9225389
164.71  3.9024363
163.71  3.8106838
162.71  4.3758399
161.71  4.246626
160.71  4.0112725
159.71  4.0375989
158.71  4.2699585
157.71  3.5621714
156.71  4.2748775
155.71  5.221859
154.71  4.3571974
153.71  4.7128745
152.71  4.2894893
151.71  3.7184248
150.71  3.9577292
149.71  4.0655084
148.71  4.8529789
147.71  3.5498264
146.71  3.6834711
145.71  4.0463595
144.71  4.4243392
143.71  4.2732752
142.71  3.8119162
141.71  4.2846508
140.71  4.314924
139.71  3.6228093
138.71  4.1169474
137.71  4.1076853
136.71  3.831456
135.71  4.1753128
134.71  4.1953612
133.71  4.2126815
132.71  4.0100798
131.71  3.8744983
130.71  4.2456883
129.71  3.6966235
128.71  3.7581379
127.71  3.6869318
126.71  3.5587381
125.71  3.4678705
124.71  3.6283395
123.71  3.1820194
122.71  4.827195
121.71  4.8232625
120.71  3.9176421
119.71  4.7022207
118.71  4.3823059
117.71  3.6130877
116.71  3.8838659
115.71  4.007388
114.71  3.7443446
113.71  3.5852187
112.71  4.0808138
111.71  4.7057246
110.71  3.8831641
109.71  3.5856273
108.71  4.1935492
107.71  4.7058186
106.71  3.8691409
105.71  4.115136
104.71  4.7431758
103.71  4.3974846
102.71  4.7280416
101.71  3.6183865
100.71  3.6318799
99.71  3.857355
98.71  3.8532113
97.71  3.4885665
96.71  3.9111811
95.71  4.2607865
94.71  4.0623529
93.71  3.8692699
92.71  4.8589646
91.71  5.6422372
90.71  5.3700701
89.71  4.6741944
88.71  4.1585735
87.71  3.2181984
86.71  3.9363012
85.71  3.3445107
84.71  4.1366753
83.71  4.4692105
82.71  3.901996
81.71  4.3810243
80.71  4.4832576
79.71  3.6415688
78.71  3.2924199
77.71  3.4645717
76.71  4.0972494
75.71  3.9880575
74.71  4.2172049
73.71  4.5020679
72.71  4.169807
71.71  4.1086926
70.71  3.8034677
69.71  4.7475911
68.71  4.3751526
67.71  3.9421839
66.71  4.1262164
65.71  4.3644361
64.71  4.0127011
63.71  3.7928855
62.71  4.074209
61.71  3.563372
60.71  3.4046559
59.71  3.358721
58.71  4.2033058
57.71  3.1860334
56.71  3.5286903
55.71  4.2507369
54.71  3.7405925
53.71  3.9449983
52.71  4.0696323
51.71  4.7074002
50.71  3.9441072
49.71  3.2231074
48.71  3.2065056
47.71  3.3665454
46.71  4.1889521
45.71  3.8022154
44.71  3.2635907
43.71  2.8872947
42.71  2.9428432
41.71  2.8893357
40.71  2.8077814
39.71  2.9498116
38.71  3.5647064
37.71  3.3533001
36.71  2.230638
35.71  2.0332948
34.71  2.0895592
33.71  1.7835623
32.71  1.8552627
31.71  1.904941
30.71  2.1520879
29.71  6.5284323
28.71  8.2684364
27.71  9.7255592
26.71  9.3357466
25.71  2.2425418
24.71  2.3951122
23.71  2.4339915
22.71  2.0229846
21.71  1.4109577
20.71  0.82548417
19.71  0.60076771
18.71  0.5299138
17.71  0.78345125
16.71  0.95937026
15.71  0.71577023
14.71  0.68982789
13.71  0.5958895
12.71  0.50075534
11.71  0.58393302
10.71  0.6805137
9.71  0.72520786
8.71  0.73786254
7.71  0.85596155
6.71  1.112996
5.71  0.92109304
4.71  0.99032314
3.71  0.8792889
2.71  0.54134833
1.71  0.50136014
0.71  0.61075123
-0.29  0.70931595
-1.29  1.2384794
-2.29  0.41693791
-3.29  0.4128881

# Region:            C1s
# Spectrum ID:       16
# Acquisition Date:  06/23/22 15:16:35 UTC
# Analysis Method:   XPS
# Analyzer:          Analyzer
# Analyzer Lens:     LargeArea:1.5kV
# Analyzer Slit:     4:3x20\B:open
# Scan Mode:         FixedAnalyzerTransmission
# Curves/Scan:       1
# Values/Curve:      81
# Dwell Time:        0.5
# Excitation Energy: 1486.71
# Binding Energy:    299.71
# Pass Energy:       30
# Bias Voltage:      -1
# Detector Voltage:  1800
# Eff. Workfunction: 4.498
# Source:            XR 50 MF (UXC1000)
# Comment:
# OrdinateRange:     [-18.000000, 18.000000]
#
# Cycle: 0
# Number of Scans: 4
#
# Cycle: 0, Curve: 0
# Acquisition Date: 06/23/22 15:16:35 UTC
#
# ColumnLabels: energy counts/s
#
299.71  4.6502551
299.51  4.9889205
299.31  5.0839957
299.11  5.0692363
298.91  5.3904531
298.71  4.8529794
298.51  4.7159693
298.31  4.7912799
298.11  5.0895423
297.91  4.8469592
297.71  4.9327849
297.51  4.8835217
297.31  4.8538421
297.11  4.9515868
296.91  4.8103758
296.71  4.3766411
296.51  4.5978225
296.31  4.7799445
296.11  4.5881765
295.91  4.6992203
295.71  4.6561459
295.51  4.8450917
295.31  4.9180201
295.11  4.5916146
294.91  4.9981699
294.71  4.7597938
294.51  4.7034005
294.31  4.7496573
294.11  4.6387214
293.91  4.9371458
293.71  4.6462218
293.51  4.5840543
293.31  4.7555773
293.11  4.6233329
292.91  4.8650353
292.71  4.5322062
292.51  4.7478759
292.31  4.7055886
292.11  4.7665551
291.91  4.5627311
291.71  4.5667063
291.51  4.9823884
291.31  5.0603845
291.11  4.9182012
290.91  5.1714299
290.71  4.9027627
290.51  5.121022
290.31  5.1329706
290.11  5.230197
289.91  5.0456775
289.71  5.1487964
289.51  5.2305249
289.31  5.5218087
289.11  5.6110903
288.91  5.7429358
288.71  6.1134486
288.51  6.6139814
288.31  7.3667686
288.11  7.7445047
287.91  9.4786948
287.71  10.89329
287.51  12.300424
287.31  13.845511
287.11  15.25722
286.91  16.102842
286.71  16.522639
286.51  16.0516
286.31  14.730094
286.11  11.973107
285.91  9.9096973
285.71  8.1300039
285.51  6.5056097
285.31  5.7694681
285.11  5.2591625
284.91  4.8799023
284.71  4.7829828
284.51  4.9551409
284.31  4.5751569
284.11  4.8167754
283.91  4.7065608
283.71  4.5402245

# Region:            Ba4d
# Spectrum ID:       17
# Acquisition Date:  06/23/22 15:32:59 UTC
# Analysis Method:   XPS
# Analyzer:          Analyzer
# Analyzer Lens:     LargeArea:1.5kV
# Analyzer Slit:     4:3x20\B:open
# Scan Mode:         FixedAnalyzerTransmission
# Curves/Scan:       1
# Values/Curve:      101
# Dwell Time:        0.5
# Excitation Energy: 1486.71
# Binding Energy:    106.71
# Pass Energy:       30
# Bias Voltage:      -1
# Detector Voltage:  1800
# Eff. Workfunction: 4.498
# Source:            XR 50 MF (UXC1000)
# Comment:
# OrdinateRange:     [-18.000000, 18.000000]
#
# Cycle: 0
# Number of Scans: 5
#
# Cycle: 0, Curve: 0
# Acquisition Date: 06/23/22 15:32:59 UTC
#
# ColumnLabels: energy counts/s
#
106.71  2.2213436
106.51  2.4335287
106.31  2.3884131
106.11  2.3646767
105.91  2.3856787
105.71  2.3734474
105.51  2.437832
105.31  2.4508295
105.11  2.3971609
104.91  2.5607325
104.71  2.6376697
104.51  2.5293603
104.31  2.5573705
104.11  2.6081817
103.91  2.6219148
103.71  2.7610612
103.51  2.4660034
103.31  2.5803103
103.11  2.475271
102.91  2.2834517
102.71  2.4524416
102.51  2.4638179
102.31  2.4221912
102.11  2.5228653
101.91  2.5158119
101.71  2.4663104
101.51  2.3902102
101.31  2.4844173
101.11  2.4928693
100.91  2.3864223
100.71  2.464225
100.51  2.325847
100.31  2.4662538
100.11  2.512777
99.91  2.6175216
99.71  2.3486986
99.51  2.3891581
99.31  2.4255032
99.11  2.5485401
98.91  2.2325081
98.71  2.2984464
98.51  2.3904844
98.31  2.3746142
98.11  2.3485085
97.91  2.2712838
97.71  2.5444234
97.51  2.4123762
97.31  2.359227
97.11  2.093428
96.91  2.4858289
96.71  2.4386994
96.51  2.4103291
96.31  2.4822626
96.11  2.5310302
95.91  2.403521
95.71  2.3865952
95.51  2.3188797
95.31  2.5395878
95.11  2.606574
94.91  2.7335657
94.71  2.6669554
94.51  2.646125
94.31  2.9185118
94.11  2.8274368
93.91  2.7279386
93.71  2.7789759
93.51  2.7059504
93.31  2.7335831
93.11  2.5810268
92.91  2.7313733
92.71  2.7831702
92.51  2.8171791
92.31  2.8054786
92.11  2.9939878
91.91  2.9267826
91.71  2.8268132
91.51  3.0611567
91.31  3.1172087
91.11  2.9378575
90.91  2.7852031
90.71  2.6447803
90.51  2.631428
90.31  2.6293183
90.11  2.2889005
89.91  2.3802624
89.71  2.4123208
89.51  2.2863906
89.31  2.2709534
89.11  2.3133829
88.91  2.4286221
88.71  2.3483997
88.51  2.3203759
88.31  2.3649754
88.11  2.2927471
87.91  2.4364087
87.71  2.3902221
87.51  2.6066677
87.31  2.3934646
87.11  2.3744684
86.91  2.3602917
86.71  2.3903882

# Region:            Na1s
# Spectrum ID:       18
# Acquisition Date:  06/23/22 15:19:00 UTC
# Analysis Method:   XPS
# Analyzer:          Analyzer
# Analyzer Lens:     LargeArea:1.5kV
# Analyzer Slit:     4:3x20\B:open
# Scan Mode:         FixedAnalyzerTransmission
# Curves/Scan:       1
# Values/Curve:      130
# Dwell Time:        0.5
# Excitation Energy: 1486.71
# Binding Energy:    1086.71
# Pass Energy:       30
# Bias Voltage:      -1
# Detector Voltage:  1800
# Eff. Workfunction: 4.498
# Source:            XR 50 MF (UXC1000)
# Comment:
# OrdinateRange:     [-18.000000, 18.000000]
#
# Cycle: 0
# Number of Scans: 4
#
# Cycle: 0, Curve: 0
# Acquisition Date: 06/23/22 15:19:00 UTC
#
# ColumnLabels: energy counts/s
#
1086.71  4.5150154
1086.5107  4.7330595
1086.3114  4.9552922
1086.1121  4.9223528
1085.9128  4.9110527
1085.7135  4.6497207
1085.5142  4.7577378
1085.3149  4.7390223
1085.1156  4.7565675
1084.9163  4.7306651
1084.717  4.6405793
1084.5177  4.6042754
1084.3184  4.7146502
1084.1191  4.6529482
1083.9198  4.7055578
1083.7205  4.6209789
1083.5212  4.5293851
1083.3219  4.7818755
1083.1226  4.8327292
1082.9233  4.6833227
1082.724  4.5156452
1082.5247  4.5280717
1082.3253  4.8241678
1082.126  4.7164393
1081.9267  4.953166
1081.7274  5.0222615
1081.5281  4.8189885
1081.3288  4.7024604
1081.1295  4.8337675
1080.9302  4.8667488
1080.7309  4.6783914
1080.5316  4.6497836
1080.3323  4.5863582
1080.133  4.6690964
1079.9337  4.7581108
1079.7344  4.8180896
1079.5351  4.7459268
1079.3358  4.9782389
1079.1365  4.9765449
1078.9372  4.8257624
1078.7379  4.6863
1078.5386  4.7314025
1078.3393  4.6733503
1078.14  4.751293
1077.9407  4.6869964
1077.7414  4.6533369
1077.5421  4.8919565
1077.3428  4.7132011
1077.1435  4.5866927
1076.9442  4.6532636
1076.7449  4.7010435
1076.5456  4.5195421
1076.3463  4.4992496
1076.147  4.7483281
1075.9477  4.8512004
1075.7484  4.9220893
1075.5491  4.7901998
1075.3498  4.5852683
1075.1505  4.6663674
1074.9512  4.5277204
1074.7519  4.8459565
1074.5526  4.9512952
1074.3533  4.801163
1074.154  5.1071606
1073.9547  4.9861225
1073.7553  4.8606934
1073.556  5.0104522
1073.3567  4.9316293
1073.1574  4.8180286
1072.9581  5.0135829
1072.7588  5.1445919
1072.5595  4.7356278
1072.3602  4.9222329
1072.1609  4.9502044
1071.9616  4.9319182
1071.7623  5.0048027
1071.563  5.0634996
1071.3637  4.7953384
1071.1644  4.5403705
1070.9651  4.6861132
1070.7658  4.9098287
1070.5665  4.8105754
1070.3672  4.8172075
1070.1679  4.7921286
1069.9686  4.8367743
1069.7693  4.8682137
1069.57  4.7160953
1069.3707  4.676642
1069.1714  4.7440709
1068.9721  4.9395596
1068.7728  4.8651022
1068.5735  4.7628158
1068.3742  5.0131073
1068.1749  4.8957737
1067.9756  4.9863141
1067.7763  4.7120915
1067.577  4.6764383
1067.3777  4.8061328
1067.1784  4.6252409
1066.9791  4.7513611
1066.7798  4.7731013
1066.5805  4.9462394
1066.3812  4.8990531
1066.1819  4.7943891
1065.9826  4.8327184
1065.7833  5.0188396
1065.584  4.9859852
1065.3847  5.1611404
1065.1853  4.8909627
1064.986  4.9284056
1064.7867  5.0492227
1064.5874  4.7964098
1064.3881  4.9081051
1064.1888  5.1929647
1063.9895  5.1416993
1063.7902  5.076138
1063.5909  5.1736344
1063.3916  5.0792654
1063.1923  5.0119088
1062.993  4.8954836
1062.7937  4.8383416
1062.5944  4.799244
1062.3951  4.7756147
1062.1958  4.8585119
1061.9965  4.9987127
1061.7972  5.0238636
1061.5979  4.761768
1061.3986  4.64472
1061.1993  4.7164923
1061  4.795514

# Region:            F1s
# Spectrum ID:       19
# Acquisition Date:  06/23/22 15:20:12 UTC
# Analysis Method:   XPS
# Analyzer:          Analyzer
# Analyzer Lens:     LargeArea:1.5kV
# Analyzer Slit:     4:3x20\B:open
# Scan Mode:         FixedAnalyzerTransmission
# Curves/Scan:       1
# Values/Curve:      115
# Dwell Time:        0.5
# Excitation Energy: 1486.71
# Binding Energy:    696.71
# Pass Energy:       30
# Bias Voltage:      -1
# Detector Voltage:  1800
# Eff. Workfunction: 4.498
# Source:            XR 50 MF (UXC1000)
# Comment:
# OrdinateRange:     [-18.000000, 18.000000]
#
# Cycle: 0
# Number of Scans: 4
#
# Cycle: 0, Curve: 0
# Acquisition Date: 06/23/22 15:20:12 UTC
#
# ColumnLabels: energy counts/s
#
696.71  4.7482549
696.51079  4.6535485
696.31158  4.7403778
696.11237  4.7913275
695.91316  4.6638643
695.71395  4.7039757
695.51474  4.8713439
695.31553  4.814696
695.11632  5.0295001
694.91711  4.8780133
694.71789  4.6543183
694.51868  4.6882189
694.31947  4.955783
694.12026  4.9231232
693.92105  5.031672
693.72184  4.8254812
693.52263  4.8870791
693.32342  4.9951754
693.12421  5.0543654
692.925  4.9526369
692.72579  4.9636299
692.52658  4.7334386
692.32737  4.8564983
692.12816  5.0363882
691.92895  4.8951566
691.72974  5.1004
691.53053  5.0286911
691.33132  4.9976459
691.13211  4.8989043
690.93289  5.0050878
690.73368  5.1007916
690.53447  4.9258413
690.33526  5.1441803
690.13605  4.8498694
689.93684  5.0119384
689.73763  4.8936888
689.53842  4.9318595
689.33921  4.9607248
689.14  4.9692184
688.94079  4.9268938
688.74158  4.7123748
688.54237  4.8157424
688.34316  4.8650255
688.14395  4.7882188
687.94474  4.9593233
687.74553  4.9415606
687.54632  4.9193815
687.34711  5.1716863
687.14789  5.132224
686.94868  5.0729901
686.74947  4.862457
686.55026  4.6762742
686.35105  4.7719005
686.15184  4.8892398
685.95263  4.8380978
685.75342  4.8560268
685.55421  4.9829589
685.355  4.9538043
685.15579  4.9574548
684.95658  5.0721787
684.75737  5.0377483
684.55816  4.8927334
684.35895  4.9783572
684.15974  5.1609656
683.96053  4.9813142
683.76132  4.7789006
683.56211  5.0293228
683.36289  4.7778475
683.16368  4.9947697
682.96447  4.8647935
682.76526  4.8358299
682.56605  4.8359334
682.36684  5.0821704
682.16763  4.9916918
681.96842  4.9823247
681.76921  5.1272207
681.57  4.7558782
681.37079  4.9631386
681.17158  5.0429254
680.97237  4.8994942
680.77316  5.0320385
680.57395  4.968899
680.37474  5.1312257
680.17553  5.085432
679.97632  5.0009812
679.77711  4.8433894
679.57789  4.8966066
679.37868  4.9710055
679.17947  5.0714743
678.98026  4.9904487
678.78105  4.9609171
678.58184  4.8734582
678.38263  5.1906792
678.18342  5.1419587
677.98421  5.1210964
677.785  5.0854216
677.58579  4.8512945
677.38658  5.0107868
677.18737  4.8463888
676.98816  4.8839041
676.78895  5.0535515
676.58974  4.8943264
676.39053  4.8693554
676.19132  4.9705375
675.99211  4.8752578
675.79289  5.0412737
675.59368  5.0574224
675.39447  5.0141596
675.19526  5.1631856
674.99605  5.1000927
674.79684  4.9657746
674.59763  4.9199424
674.39842  5.1199493
674.19921  5.002086
674  5.1372646

# Region:            Ba3d
# Spectrum ID:       20
# Acquisition Date:  06/23/22 15:21:44 UTC
# Analysis Method:   XPS
# Analyzer:          Analyzer
# Analyzer Lens:     LargeArea:1.5kV
# Analyzer Slit:     4:3x20\B:open
# Scan Mode:         FixedAnalyzerTransmission
# Curves/Scan:       1
# Values/Curve:      156
# Dwell Time:        0.5
# Excitation Energy: 1486.71
# Binding Energy:    801
# Pass Energy:       30
# Bias Voltage:      -1
# Detector Voltage:  1800
# Eff. Workfunction: 4.498
# Source:            XR 50 MF (UXC1000)
# Comment:
# OrdinateRange:     [-18.000000, 18.000000]
#
# Cycle: 0
# Number of Scans: 4
#
# Cycle: 0, Curve: 0
# Acquisition Date: 06/23/22 15:21:44 UTC
#
# ColumnLabels: energy counts/s
#
801  4.6479547
800.8  4.5209535
800.6  4.5907915
800.4  4.6257815
800.2  4.5629719
800  4.5383879
799.8  4.6422339
799.6  4.5658635
799.4  4.6464219
799.2  4.7984629
799  4.8970482
798.8  5.1064302
798.6  5.0549004
798.4  5.2624963
798.2  5.225669
798  5.3192311
797.8  5.2528718
797.6  5.6020725
797.4  6.0458961
797.2  6.3768133
797  6.5504659
796.8  6.1989345
796.6  6.1628413
796.4  5.9283128
796.2  5.5923622
796  5.3505361
795.8  5.0336838
795.6  4.905295
795.4  4.9487449
795.2  4.7190296
795  4.4899556
794.8  4.7539846
794.6  4.4796191
794.4  4.4042305
794.2  4.3783278
794  4.6967946
793.8  4.4453397
793.6  4.3298122
793.4  4.374548
793.2  4.5811155
793  4.6547209
792.8  4.4874319
792.6  4.5324552
792.4  4.419267
792.2  4.3819943
792  4.4023241
791.8  4.3621228
791.6  4.3900197
791.4  4.1672108
791.2  4.2700035
791  4.3263673
790.8  4.4165852
790.6  4.483782
790.4  4.29513
790.2  4.425321
790  4.5568374
789.8  4.5723389
789.6  4.3098863
789.4  4.3349578
789.2  4.3504583
789  4.3729246
788.8  4.5164566
788.6  4.5897962
788.4  4.3363046
788.2  4.287468
788  4.2480261
787.8  4.3403388
787.6  4.3080813
787.4  4.4268459
787.2  4.4832763
787  4.4679994
786.8  4.2411365
786.6  4.272051
786.4  4.5327808
786.2  4.4596967
786  4.4218995
785.8  4.2939597
785.6  4.4028051
785.4  4.3350273
785.2  4.278809
785  4.5762878
784.8  4.5769707
784.6  4.3087105
784.4  4.4239323
784.2  4.6142947
784  4.5872983
783.8  4.8546596
783.6  4.9060631
783.4  4.6197555
783.2  4.8993108
783  5.2621556
782.8  5.5322941
782.6  5.9228765
782.4  6.1223321
782.2  6.4299513
782  6.6275125
781.8  6.7130541
781.6  6.7958279
781.4  6.856676
781.2  6.645816
781  6.3604113
780.8  5.7608053
780.6  5.4401717
780.4  4.9845395
780.2  4.646644
780  4.5833783
779.8  4.6013428
779.6  4.7025541
779.4  4.6363036
779.2  4.4551359
779  4.4315887
778.8  4.3361472
778.6  4.4037781
778.4  4.2680175
778.2  4.1761433
778  4.3311712
777.8  4.3240572
777.6  4.3727486
777.4  4.5032368
777.2  4.3957738
777  4.5371685
776.8  4.508626
776.6  4.2887273
776.4  4.4744843
776.2  4.4713856
776  4.4713595
775.8  4.5091911
775.6  4.3874738
775.4  4.476212
775.2  4.443735
775  4.2746009
774.8  4.2463805
774.6  4.308673
774.4  4.3401403
774.2  4.4746356
774  4.4695032
773.8  4.5860713
773.6  4.4594386
773.4  4.2868718
773.2  4.331213
773  4.1912904
772.8  4.3436951
772.6  4.3150251
772.4  4.4711635
772.2  4.2418773
772  4.2752819
771.8  4.4584672
771.6  4.1674631
771.4  4.3597664
771.2  4.4768278
771  4.3300086
770.8  4.2393227
770.6  4.4653447
770.4  4.3747931
770.2  4.5443588
770  4.4156539

# Region:            O1s
# Spectrum ID:       21
# Acquisition Date:  06/23/22 15:33:45 UTC
# Analysis Method:   XPS
# Analyzer:          Analyzer
# Analyzer Lens:     LargeArea:1.5kV
# Analyzer Slit:     4:3x20\B:open
# Scan Mode:         FixedAnalyzerTransmission
# Curves/Scan:       1
# Values/Curve:      65
# Dwell Time:        0.5
# Excitation Energy: 1486.71
# Binding Energy:    541.71
# Pass Energy:       30
# Bias Voltage:      -1
# Detector Voltage:  1800
# Eff. Workfunction: 4.498
# Source:            XR 50 MF (UXC1000)
# Comment:
# OrdinateRange:     [-18.000000, 18.000000]
#
# Cycle: 0
# Number of Scans: 5
#
# Cycle: 0, Curve: 0
# Acquisition Date: 06/23/22 15:33:45 UTC
#
# ColumnLabels: energy counts/s
#
541.71  5.2250965
541.51  5.1672434
541.31  5.0580841
541.11  5.1831689
540.91  5.0633552
540.71  4.9341691
540.51  4.7613581
540.31  4.8275084
540.11  4.859447
539.91  4.9373061
539.71  4.9802847
539.51  4.9512303
539.31  4.8442913
539.11  4.894299
538.91  5.1360764
538.71  4.8600929
538.51  4.8541594
538.31  4.9042913
538.11  4.853022
537.91  4.8147464
537.71  4.8301211
537.51  4.9225666
537.31  5.0408573
537.11  4.998695
536.91  4.8996738
536.71  5.170332
536.51  5.2738833
536.31  5.4002001
536.11  5.6163047
535.91  5.5295216
535.71  5.7098438
535.51  6.0418349
535.31  6.3624863
535.11  6.7528913
534.91  7.1591035
534.71  7.4515682
534.51  8.0354957
534.31  8.5721012
534.11  9.1550557
533.91  9.3397415
533.71  9.4740969
533.51  9.2191351
533.31  9.2339974
533.11  9.2569583
532.91  9.3638989
532.71  9.4272938
532.51  9.6752106
532.31  10.233103
532.11  11.261349
531.91  11.655687
531.71  12.005428
531.51  11.869021
531.31  10.213761
531.11  9.3044815
530.91  7.8435933
530.71  6.482947
530.51  5.9403006
530.31  5.267529
530.11  5.1267809
529.91  4.8426784
529.71  4.8816613
529.51  4.7197415
529.31  4.6363693
529.11  4.6070992
528.91  4.5623978

# Region:            N1s
# Spectrum ID:       22
# Acquisition Date:  06/23/22 16:38:43 UTC
# Analysis Method:   XPS
# Analyzer:          Analyzer
# Analyzer Lens:     LargeArea:1.5kV
# Analyzer Slit:     4:3x20\B:open
# Scan Mode:         FixedAnalyzerTransmission
# Curves/Scan:       1
# Values/Curve:      74
# Dwell Time:        0.5
# Excitation Energy: 1486.71
# Binding Energy:    412
# Pass Energy:       30
# Bias Voltage:      -1
# Detector Voltage:  1800
# Eff. Workfunction: 4.498
# Source:            XR 50 MF (UXC1000)
# Comment:
# OrdinateRange:     [-18.000000, 18.000000]
#
# Cycle: 0
# Number of Scans: 20
#
# Cycle: 0, Curve: 0
# Acquisition Date: 06/23/22 16:38:43 UTC
#
# ColumnLabels: energy counts/s
#
412  4.8334545
411.80822  4.7885706
411.61644  4.7124706
411.42466  4.7319963
411.23288  4.7148681
411.0411  4.6833764
410.84932  4.7107435
410.65753  4.7806717
410.46575  4.7556906
410.27397  4.8216235
410.08219  4.8817541
409.89041  4.7862377
409.69863  4.8466487
409.50685  4.8910088
409.31507  4.9503547
409.12329  4.8900487
408.93151  4.9435119
408.73973  5.0155112
408.54795  5.2089122
408.35616  5.0450382
408.16438  5.0584208
407.9726  5.213727
407.78082  5.3094264
407.58904  5.2247055
407.39726  5.2650822
407.20548  5.1969877
407.0137  5.4524523
406.82192  5.4058186
406.63014  5.4648785
406.43836  5.2738959
406.24658  5.4718159
406.05479  5.3967749
405.86301  5.4698878
405.67123  5.4986025
405.47945  5.4296592
405.28767  5.3439545
405.09589  5.3769636
404.90411  5.4056734
404.71233  5.4951168
404.52055  5.4038968
404.32877  5.2007617
404.13699  5.1855997
403.94521  5.0849478
403.75342  5.1711803
403.56164  5.1204345
403.36986  5.0063865
403.17808  5.0231341
402.9863  5.13403
402.79452  5.0285196
402.60274  5.0341129
402.41096  4.9465912
402.21918  4.9748121
402.0274  5.019577
401.83562  4.9225573
401.64384  4.9476774
401.45205  4.9075378
401.26027  4.8995822
401.06849  4.9438187
400.87671  4.956536
400.68493  4.9367434
400.49315  4.8452159
400.30137  4.8304891
400.10959  4.8756887
399.91781  4.8192572
399.72603  4.8263495
399.53425  4.7773835
399.34247  4.8272002
399.15068  4.7473709
398.9589  4.6260048
398.76712  4.7296441
398.57534  4.6001232
398.38356  4.5691432
398.19178  4.6929599
398  4.6200269

# Region:            Si2s (2)
# Spectrum ID:       23
# Acquisition Date:  06/23/22 14:34:37 UTC
# Analysis Method:   XPS
# Analyzer:          Analyzer
# Analyzer Lens:     LargeArea:1.5kV
# Analyzer Slit:     4:3x20\B:open
# Scan Mode:         FixedAnalyzerTransmission
# Curves/Scan:       1
# Values/Curve:      64
# Dwell Time:        0.5
# Excitation Energy: 1486.71
# Binding Energy:    157
# Pass Energy:       30
# Bias Voltage:      -1
# Detector Voltage:  1800
# Eff. Workfunction: 4.498
# Source:            XR 50 MF (UXC1000)
# Comment:
# OrdinateRange:     [-18.000000, 18.000000]
#
# Cycle: 0
# Number of Scans: 1
#
# Cycle: 0, Curve: 0
# Acquisition Date: 06/23/22 14:34:37 UTC
#
# ColumnLabels: energy counts/s
#
157  2.3049292
156.80952  2.4114986
156.61905  2.4313956
156.42857  2.2961758
156.2381  2.3293127
156.04762  2.5106102
155.85714  2.3396753
155.66667  2.3860602
155.47619  2.7795746
155.28571  2.7562642
155.09524  2.3974256
154.90476  2.1732354
154.71429  2.1351834
154.52381  2.4935342
154.33333  2.7849883
154.14286  2.1734768
153.95238  2.6159717
153.7619  2.6436224
153.57143  2.8840896
153.38095  2.4141706
153.19048  2.4973295
153  3.0049148
152.80952  2.6971554
152.61905  2.3660063
152.42857  2.5651259
152.2381  2.4851897
152.04762  2.4273038
151.85714  2.2418253
151.66667  2.3915886
151.47619  2.2860958
151.28571  2.3250934
151.09524  2.4839629
150.90476  2.3954888
150.71429  2.3349198
150.52381  2.6417962
150.33333  2.473742
150.14286  3.1243913
149.95238  2.5146567
149.7619  2.1638213
149.57143  2.0816297
149.38095  2.292156
149.19048  2.2066562
149  2.6524728
148.80952  2.8299019
148.61905  2.5301556
148.42857  2.3735644
148.2381  2.2888082
148.04762  2.6488788
147.85714  3.0893673
147.66667  2.166249
147.47619  2.3327706
147.28571  2.4602778
147.09524  2.4232365
146.90476  2.7446107
146.71429  2.6447601
146.52381  2.2977237
146.33333  2.5528158
146.14286  2.448976
145.95238  2.317343
145.7619  2.3718893
145.57143  2.2050716
145.38095  2.3363552
145.19048  2.452112
145  2.5617717

# Region:            Si2p
# Spectrum ID:       24
# Acquisition Date:  06/23/22 16:22:30 UTC
# Analysis Method:   XPS
# Analyzer:          Analyzer
# Analyzer Lens:     LargeArea:1.5kV
# Analyzer Slit:     4:3x20\B:open
# Scan Mode:         FixedAnalyzerTransmission
# Curves/Scan:       1
# Values/Curve:      52
# Dwell Time:        0.5
# Excitation Energy: 1486.71
# Binding Energy:    110
# Pass Energy:       30
# Bias Voltage:      -1
# Detector Voltage:  1800
# Eff. Workfunction: 4.498
# Source:            XR 50 MF (UXC1000)
# Comment:
# OrdinateRange:     [-18.000000, 18.000000]
#
# Cycle: 0
# Number of Scans: 10
#
# Cycle: 0, Curve: 0
# Acquisition Date: 06/23/22 16:22:30 UTC
#
# ColumnLabels: energy counts/s
#
110  2.569008
109.80392  2.4404893
109.60784  2.4126822
109.41176  2.4738366
109.21569  2.4301047
109.01961  2.3580261
108.82353  2.3943785
108.62745  2.4468286
108.43137  2.4819749
108.23529  2.4205467
108.03922  2.4010053
107.84314  2.4410076
107.64706  2.4162016
107.45098  2.4118359
107.2549  2.4586772
107.05882  2.3876137
106.86275  2.4950458
106.66667  2.3241535
106.47059  2.3940964
106.27451  2.3937898
106.07843  2.4866606
105.88235  2.4696764
105.68627  2.527638
105.4902  2.5167298
105.29412  2.4887304
105.09804  2.4894305
104.90196  2.5324679
104.70588  2.5458821
104.5098  2.5763834
104.31373  2.6914799
104.11765  2.7625606
103.92157  2.6963696
103.72549  2.5823072
103.52941  2.6291566
103.33333  2.5360766
103.13725  2.4544258
102.94118  2.5727018
102.7451  2.5302938
102.54902  2.4583808
102.35294  2.4678789
102.15686  2.3989273
101.96078  2.4614706
101.76471  2.486578
101.56863  2.5277311
101.37255  2.3797281
101.17647  2.39646
100.98039  2.3669884
100.78431  2.5379621
100.58824  2.3297745
100.39216  2.3607651
100.19608  2.4831536
100  2.4549731

# Region:            overview (2)
# Spectrum ID:       25
# Acquisition Date:  06/23/22 16:29:39 UTC
# Analysis Method:   XPS
# Analyzer:          Analyzer
# Analyzer Lens:     MediumArea:1.5kV
# Analyzer Slit:     4:3x20\B:open
# Scan Mode:         FixedAnalyzerTransmission
# Curves/Scan:       1
# Values/Curve:      1402
# Dwell Time:        0.2
# Excitation Energy: 1486.71
# Binding Energy:    1400
# Pass Energy:       50
# Bias Voltage:      -1
# Detector Voltage:  1800
# Eff. Workfunction: 4.498
# Source:            XR 50 MF (UXC1000)
# Comment:
# OrdinateRange:     [-7.000000, 7.000000]
#
# Cycle: 0
# Number of Scans: 10
#
# Cycle: 0, Curve: 0
# Acquisition Date: 06/23/22 16:29:39 UTC
#
# ColumnLabels: energy counts/s
#
1400  11.958175
1399.0009  11.522536
1398.0017  11.220475
1397.0026  10.7809
1396.0034  10.173723
1395.0043  10.165962
1394.0051  10.227963
1393.006  9.8639622
1392.0069  9.4949539
1391.0077  9.5539737
1390.0086  9.3169263
1389.0094  9.3920134
1388.0103  9.1628068
1387.0111  8.9205816
1386.012  8.7450699
1385.0128  8.7515389
1384.0137  8.5573157
1383.0146  8.427524
1382.0154  8.1802053
1381.0163  8.0841128
1380.0171  7.9913781
1379.018  8.1622874
1378.0188  7.8506103
1377.0197  7.9204405
1376.0206  7.5970883
1375.0214  7.386675
1374.0223  7.4998181
1373.0231  7.5377575
1372.024  7.7259096
1371.0248  7.5101676
1370.0257  7.2423979
1369.0266  7.3024814
1368.0274  7.4986454
1367.0283  7.2086453
1366.0291  7.489909
1365.03  7.3506341
1364.0308  7.4498477
1363.0317  7.4785007
1362.0325  7.3719318
1361.0334  7.4002795
1360.0343  7.5084944
1359.0351  7.2222081
1358.036  7.0954886
1357.0368  7.1735066
1356.0377  7.3651861
1355.0385  7.6491766
1354.0394  7.5305232
1353.0403  7.8732932
1352.0411  7.6754904
1351.042  7.5122735
1350.0428  7.9206564
1349.0437  7.9892645
1348.0445  8.0370421
1347.0454  7.8632527
1346.0463  7.859581
1345.0471  7.8438701
1344.048  7.9157233
1343.0488  7.9506336
1342.0497  7.7803357
1341.0505  7.9010329
1340.0514  8.1345455
1339.0522  8.1865757
1338.0531  8.0143271
1337.054  7.9922912
1336.0548  8.2285277
1335.0557  8.3023172
1334.0565  8.3017161
1333.0574  8.1254767
1332.0582  8.312923
1331.0591  8.3979402
1330.06  8.5320096
1329.0608  8.5634268
1328.0617  8.6610382
1327.0625  8.3487233
1326.0634  8.5005272
1325.0642  8.6795505
1324.0651  8.7048021
1323.066  8.8040915
1322.0668  8.9188237
1321.0677  8.7722205
1320.0685  8.6858776
1319.0694  8.817297
1318.0702  8.701177
1317.0711  9.0291897
1316.0719  8.6995502
1315.0728  8.6613258
1314.0737  8.7734827
1313.0745  9.0101132
1312.0754  8.6993954
1311.0762  8.9588044
1310.0771  9.2741156
1309.0779  9.1070354
1308.0788  9.1142439
1307.0797  8.967773
1306.0805  9.1560031
1305.0814  9.1009575
1304.0822  9.2164268
1303.0831  9.0081706
1302.0839  8.9569585
1301.0848  9.1209008
1300.0857  9.1689616
1299.0865  9.2710251
1298.0874  8.9950753
1297.0882  8.7457763
1296.0891  8.9106494
1295.0899  9.2056717
1294.0908  9.1565766
1293.0916  9.3757138
1292.0925  9.0092239
1291.0934  9.2436981
1290.0942  9.2183732
1289.0951  9.2789961
1288.0959  9.3620623
1287.0968  9.5233702
1286.0976  9.0772519
1285.0985  9.4355444
1284.0994  9.4121446
1283.1002  9.2411736
1282.1011  9.3637293
1281.1019  9.5203093
1280.1028  9.1929537
1279.1036  9.5092522
1278.1045  9.6769202
1277.1054  9.3099189
1276.1062  9.1622809
1275.1071  9.503308
1274.1079  9.2792401
1273.1088  9.231985
1272.1096  9.1498044
1271.1105  9.360842
1270.1113  9.4338788
1269.1122  9.4174455
1268.1131  9.5105482
1267.1139  9.2748771
1266.1148  9.4403489
1265.1156  9.3336332
1264.1165  9.4788498
1263.1173  9.3410199
1262.1182  9.5226937
1261.1191  9.4584295
1260.1199  9.2395706
1259.1208  9.503879
1258.1216  9.4467551
1257.1225  9.3026548
1256.1233  8.9851042
1255.1242  9.5507877
1254.1251  9.6233817
1253.1259  9.2325532
1252.1268  9.8487236
1251.1276  9.8394579
1250.1285  9.44516
1249.1293  9.3151793
1248.1302  9.5208063
1247.131  9.6641192
1246.1319  9.6444149
1245.1328  9.6388408
1244.1336  9.465114
1243.1345  9.4349419
1242.1353  9.3088969
1241.1362  9.9181514
1240.137  9.7018015
1239.1379  9.7948216
1238.1388  9.8194814
1237.1396  9.7573632
1236.1405  9.845006
1235.1413  9.9117631
1234.1422  10.056598
1233.143  9.8414017
1232.1439  9.8275079
1231.1448  10.03609
1230.1456  9.8865156
1229.1465  10.413398
1228.1473  10.355941
1227.1482  10.082574
1226.149  9.8889015
1225.1499  9.8306356
1224.1507  10.044379
1223.1516  9.9767013
1222.1525  9.7732252
1221.1533  9.5208139
1220.1542  9.4816588
1219.155  9.0721351
1218.1559  8.9462151
1217.1567  8.8201323
1216.1576  8.5631142
1215.1585  8.2266552
1214.1593  8.1517213
1213.1602  8.1081689
1212.161  8.4229215
1211.1619  8.1771085
1210.1627  8.0210862
1209.1636  8.0698376
1208.1645  8.1260689
1207.1653  8.3168218
1206.1662  8.225605
1205.167  8.0135697
1204.1679  8.1581231
1203.1687  7.9391811
1202.1696  8.1265452
1201.1704  7.920865
1200.1713  8.0199578
1199.1722  7.9315675
1198.173  7.9229138
1197.1739  7.8394952
1196.1747  8.1948165
1195.1756  8.09726
1194.1764  8.0693011
1193.1773  8.0607313
1192.1782  8.0144984
1191.179  7.9641257
1190.1799  7.7954705
1189.1807  8.2074177
1188.1816  7.9942634
1187.1824  7.7402372
1186.1833  7.7027183
1185.1842  7.7733208
1184.185  7.9703142
1183.1859  7.8334959
1182.1867  7.8321405
1181.1876  7.8383933
1180.1884  7.8199549
1179.1893  8.1053168
1178.1901  7.9391005
1177.191  7.7794917
1176.1919  7.9956701
1175.1927  7.850059
1174.1936  7.9240864
1173.1944  7.6537404
1172.1953  7.6636266
1171.1961  7.8980701
1170.197  7.8823433
1169.1979  8.2473199
1168.1987  8.041014
1167.1996  7.9292453
1166.2004  8.0024275
1165.2013  7.8399408
1164.2021  7.8086856
1163.203  7.7813739
1162.2039  8.0096134
1161.2047  7.7665324
1160.2056  7.9341868
1159.2064  7.8355628
1158.2073  7.5145925
1157.2081  7.7772137
1156.209  7.8030645
1155.2099  7.5535975
1154.2107  7.9174845
1153.2116  7.799133
1152.2124  7.7496908
1151.2133  7.6703293
1150.2141  7.5459675
1149.215  7.8901357
1148.2158  7.7001979
1147.2167  7.6926635
1146.2176  7.6680878
1145.2184  7.5641985
1144.2193  7.7411864
1143.2201  7.9181664
1142.221  7.6069385
1141.2218  7.6096227
1140.2227  7.8079261
1139.2236  7.7942781
1138.2244  7.7623853
1137.2253  7.5309063
1136.2261  7.8900865
1135.227  7.954623
1134.2278  7.9717944
1133.2287  7.6939894
1132.2296  7.7237135
1131.2304  7.6584561
1130.2313  7.5022804
1129.2321  7.4535585
1128.233  7.5884701
1127.2338  7.7182195
1126.2347  7.7273083
1125.2355  7.6646321
1124.2364  7.5845661
1123.2373  7.5750137
1122.2381  7.6565856
1121.239  7.3967384
1120.2398  7.6877591
1119.2407  7.567432
1118.2415  7.7521635
1117.2424  7.4976518
1116.2433  7.6379315
1115.2441  7.5591644
1114.245  7.7440122
1113.2458  7.7588558
1112.2467  7.7726563
1111.2475  7.4843591
1110.2484  7.6361374
1109.2493  7.5221835
1108.2501  7.761248
1107.251  7.6828175
1106.2518  7.2770949
1105.2527  7.3304088
1104.2535  7.5100008
1103.2544  7.6279983
1102.2552  7.5201568
1101.2561  7.476204
1100.257  7.4949489
1099.2578  7.6921619
1098.2587  7.4766437
1097.2595  7.4761101
1096.2604  7.2086957
1095.2612  7.2531147
1094.2621  7.4794219
1093.263  7.3628215
1092.2638  7.2872742
1091.2647  7.4335072
1090.2655  7.5853807
1089.2664  7.7780496
1088.2672  7.6481739
1087.2681  7.5475711
1086.269  7.7208061
1085.2698  7.5770214
1084.2707  7.807654
1083.2715  7.4156007
1082.2724  7.6613225
1081.2732  7.5801224
1080.2741  7.6226413
1079.2749  7.51868
1078.2758  7.3163617
1077.2767  7.2478784
1076.2775  7.4817888
1075.2784  7.6569901
1074.2792  7.4400642
1073.2801  7.7904027
1072.2809  7.792114
1071.2818  7.3720135
1070.2827  7.4211284
1069.2835  7.4895605
1068.2844  7.1396938
1067.2852  7.4221758
1066.2861  7.4850586
1065.2869  7.4893963
1064.2878  7.6837082
1063.2887  7.7488318
1062.2895  7.3211876
1061.2904  7.4161676
1060.2912  7.413424
1059.2921  7.2421953
1058.2929  7.2473404
1057.2938  7.1864508
1056.2946  7.5135408
1055.2955  7.4734487
1054.2964  7.2557525
1053.2972  7.2756393
1052.2981  7.1789025
1051.2989  7.5366095
1050.2998  7.4929835
1049.3006  7.3097186
1048.3015  7.5071765
1047.3024  7.1840206
1046.3032  7.220539
1045.3041  7.0780957
1044.3049  6.9435965
1043.3058  7.2385201
1042.3066  7.394439
1041.3075  7.3293014
1040.3084  7.3465411
1039.3092  7.2505084
1038.3101  7.3544688
1037.3109  7.1476927
1036.3118  7.3137737
1035.3126  7.092623
1034.3135  7.250441
1033.3143  7.2340053
1032.3152  7.3071679
1031.3161  7.4503311
1030.3169  7.1744652
1029.3178  7.0137985
1028.3186  7.1565491
1027.3195  6.9995685
1026.3203  7.0869683
1025.3212  7.3381419
1024.3221  7.3077701
1023.3229  7.2015271
1022.3238  7.3718513
1021.3246  7.2342741
1020.3255  7.4879734
1019.3263  7.2000312
1018.3272  6.9466872
1017.3281  7.1701845
1016.3289  7.1038962
1015.3298  7.2003993
1014.3306  7.0385941
1013.3315  7.0337321
1012.3323  7.0983037
1011.3332  7.2699149
1010.334  7.5403264
1009.3349  7.2608743
1008.3358  7.2332108
1007.3366  7.152845
1006.3375  7.6955666
1005.3383  7.4463217
1004.3392  7.1046043
1003.34  7.3336672
1002.3409  7.1415128
1001.3418  7.3140326
1000.3426  7.0467836
999.34347  7.4223822
998.34433  7.3315127
997.34518  7.5093425
996.34604  7.3455826
995.3469  7.3761785
994.34775  7.0729969
993.34861  7.2949664
992.34946  7.3061345
991.35032  7.2435036
990.35118  7.1998406
989.35203  7.0938954
988.35289  7.0498885
987.35375  7.1525036
986.3546  6.929885
985.35546  6.8532687
984.35632  6.7582369
983.35717  6.7582
982.35803  6.9979235
981.35889  7.2610777
980.35974  7.4881521
979.3606  7.1672826
978.36146  7.3313317
977.36231  7.5773796
976.36317  8.0003777
975.36403  7.6959448
974.36488  7.5155029
973.36574  7.2521973
972.3666  7.0972928
971.36745  6.9041003
970.36831  6.6496352
969.36916  6.6793001
968.37002  6.5955141
967.37088  6.6596487
966.37173  6.4152178
965.37259  6.1667722
964.37345  6.5545379
963.3743  6.3850492
962.37516  6.1815831
961.37602  6.5379812
960.37687  6.5449211
959.37773  6.3429711
958.37859  6.4590163
957.37944  6.547916
956.3803  6.3666105
955.38116  6.7889229
954.38201  6.6606953
953.38287  6.6794139
952.38373  6.2299642
951.38458  6.4184475
950.38544  6.5808772
949.3863  6.6251884
948.38715  6.7668157
947.38801  6.9669508
946.38887  6.6498448
945.38972  6.6498266
944.39058  6.740654
943.39143  6.6520238
942.39229  6.8115758
941.39315  6.8993445
940.394  6.8376104
939.39486  6.4393459
938.39572  6.5250696
937.39657  6.8566592
936.39743  6.8840432
935.39829  6.8410876
934.39914  7.0481041
933.4  6.8875402
932.40086  6.917229
931.40171  6.8417391
930.40257  6.9273885
929.40343  7.0832379
928.40428  6.8218996
927.40514  6.7535546
926.406  7.0225182
925.40685  6.9207715
924.40771  6.8987552
923.40857  6.7553301
922.40942  6.9775495
921.41028  6.898528
920.41113  6.9385469
919.41199  7.1102939
918.41285  7.1460433
917.4137  7.0170977
916.41456  6.9688625
915.41542  7.1191925
914.41627  7.1757479
913.41713  6.9833353
912.41799  7.0525321
911.41884  7.0141903
910.4197  7.3073595
909.42056  7.1026636
908.42141  7.0249865
907.42227  7.4128882
906.42313  7.4112903
905.42398  6.9825108
904.42484  7.305203
903.4257  7.4988659
902.42655  7.302004
901.42741  7.3507616
900.42827  7.3842073
899.42912  7.1655023
898.42998  7.3801865
897.43084  7.2327023
896.43169  7.1614215
895.43255  7.2683621
894.4334  7.2466145
893.43426  7.0804895
892.43512  7.1160915
891.43597  7.2627618
890.43683  7.4423022
889.43769  7.320783
888.43854  7.2954345
887.4394  7.5617362
886.44026  7.3389111
885.44111  7.4932801
884.44197  7.2245178
883.44283  7.0923169
882.44368  6.9669173
881.44454  6.8971487
880.4454  7.1642311
879.44625  6.9873718
878.44711  7.2249821
877.44797  7.2849052
876.44882  7.3215783
875.44968  7.543987
874.45054  7.2504013
873.45139  7.2886816
872.45225  7.6094675
871.4531  7.327211
870.45396  7.4905158
869.45482  7.5197896
868.45567  7.5030588
867.45653  7.5194488
866.45739  7.428324
865.45824  7.47121
864.4591  7.6761887
863.45996  7.6408602
862.46081  7.843014
861.46167  7.7753607
860.46253  7.8844188
859.46338  8.0689116
858.46424  7.8276472
857.4651  7.9910423
856.46595  8.1920351
855.46681  8.0070812
854.46767  7.8749948
853.46852  7.8153434
852.46938  7.9707111
851.47024  7.6993127
850.47109  7.9005623
849.47195  7.8514911
848.47281  8.2834131
847.47366  7.9283012
846.47452  8.0546727
845.47537  8.0072856
844.47623  8.1387766
843.47709  8.4011347
842.47794  7.8474518
841.4788  8.2814076
840.47966  8.2890712
839.48051  8.2545672
838.48137  8.2788843
837.48223  8.2294339
836.48308  8.3618891
835.48394  8.1023883
834.4848  8.3240925
833.48565  8.1858293
832.48651  8.3932765
831.48737  8.0056223
830.48822  8.2458553
829.48908  8.5712151
828.48994  8.7957745
827.49079  8.5596771
826.49165  8.4041818
825.49251  8.5972649
824.49336  8.3433423
823.49422  8.6296793
822.49507  8.74253
821.49593  8.6395892
820.49679  8.7890657
819.49764  9.0481801
818.4985  8.8186074
817.49936  8.9249967
816.50021  8.8721496
815.50107  8.9435883
814.50193  9.1460166
813.50278  9.0263901
812.50364  8.8726199
811.5045  9.0422162
810.50535  8.6974855
809.50621  9.0756571
808.50707  9.1091778
807.50792  9.1658185
806.50878  9.0462144
805.50964  9.0344415
804.51049  9.1344846
803.51135  8.8275021
802.51221  9.2286319
801.51306  8.9629487
800.51392  9.2330098
799.51478  9.1851286
798.51563  9.837112
797.51649  11.480353
796.51734  11.547831
795.5182  9.7313838
794.51906  9.1807076
793.51991  8.8190339
792.52077  8.6572014
791.52163  8.7793491
790.52248  8.6362896
789.52334  8.7433968
788.5242  8.6539528
787.52505  8.1734976
786.52591  8.1346322
785.52677  8.4799905
784.52762  9.0000503
783.52848  9.9042325
782.52934  12.05191
781.53019  13.793477
780.53105  10.87156
779.53191  9.1770531
778.53276  8.8926675
777.53362  8.7142583
776.53448  8.7450408
775.53533  8.5342774
774.53619  8.8053151
773.53704  8.764796
772.5379  8.5117365
771.53876  8.7273836
770.53961  8.7564502
769.54047  8.8371722
768.54133  8.9700563
767.54218  9.3452832
766.54304  8.6781196
765.5439  9.0537446
764.54475  8.6955059
763.54561  8.7052298
762.54647  8.6996249
761.54732  8.9263213
760.54818  8.8916727
759.54904  8.847863
758.54989  8.8644648
757.55075  8.9380913
756.55161  8.8686175
755.55246  9.1358346
754.55332  9.3230457
753.55418  9.2890293
752.55503  9.3338469
751.55589  9.147049
750.55675  9.0973465
749.5576  9.2672771
748.55846  9.3657266
747.55931  9.6802852
746.56017  9.2442955
745.56103  9.3633375
744.56188  9.1944977
743.56274  9.3501314
742.5636  9.3835697
741.56445  9.5218885
740.56531  9.5115169
739.56617  9.34345
738.56702  9.4336826
737.56788  9.6284392
736.56874  9.6191097
735.56959  9.590705
734.57045  9.6913477
733.57131  9.700697
732.57216  9.5221276
731.57302  9.6342043
730.57388  10.04323
729.57473  9.6363642
728.57559  9.4117303
727.57645  9.5107689
726.5773  9.7581822
725.57816  10.025376
724.57901  9.693745
723.57987  9.7077708
722.58073  9.4425817
721.58158  9.7461177
720.58244  9.7444865
719.5833  9.7454144
718.58415  9.5958569
717.58501  9.9568871
716.58587  10.044651
715.58672  9.8141228
714.58758  10.147327
713.58844  9.957977
712.58929  10.450643
711.59015  10.38225
710.59101  9.8390602
709.59186  10.428032
708.59272  10.392733
707.59358  10.190829
706.59443  10.349373
705.59529  9.9580634
704.59615  9.898291
703.597  9.947631
702.59786  10.009845
701.59872  9.9820917
700.59957  10.325702
699.60043  10.170259
698.60128  10.196521
697.60214  10.158355
696.603  10.194282
695.60385  10.083094
694.60471  10.138392
693.60557  10.032826
692.60642  10.073278
691.60728  10.404224
690.60814  10.466224
689.60899  10.66906
688.60985  10.494513
687.61071  10.329086
686.61156  10.385846
685.61242  10.659703
684.61328  10.753971
683.61413  10.288864
682.61499  10.397152
681.61585  10.249706
680.6167  10.684671
679.61756  10.507361
678.61842  10.600304
677.61927  10.3376
676.62013  10.5313
675.62099  10.758806
674.62184  10.792252
673.6227  10.670319
672.62355  10.728604
671.62441  10.520116
670.62527  10.887987
669.62612  10.684617
668.62698  10.614106
667.62784  11.169564
666.62869  10.853506
665.62955  10.645581
664.63041  10.815182
663.63126  10.717958
662.63212  10.762683
661.63298  11.149057
660.63383  11.125675
659.63469  11.351464
658.63555  10.822744
657.6364  11.192026
656.63726  10.893649
655.63812  10.955738
654.63897  11.147216
653.63983  11.144021
652.64069  11.350869
651.64154  11.468461
650.6424  11.276682
649.64325  10.95149
648.64411  11.104874
647.64497  11.051675
646.64582  10.826537
645.64668  11.090687
644.64754  11.348914
643.64839  11.195256
642.64925  11.376184
641.65011  11.19916
640.65096  11.681444
639.65182  11.555841
638.65268  11.497867
637.65353  11.573994
636.65439  11.387333
635.65525  11.472883
634.6561  11.719181
633.65696  11.771591
632.65782  11.402907
631.65867  11.219907
630.65953  11.536643
629.66039  11.437204
628.66124  11.637002
627.6621  11.682717
626.66296  11.471805
625.66381  11.752594
624.66467  11.461743
623.66552  11.879114
622.66638  11.601979
621.66724  11.974978
620.66809  11.820068
619.66895  11.903699
618.66981  11.348218
617.67066  11.546782
616.67152  11.632124
615.67238  11.753116
614.67323  12.006419
613.67409  12.397381
612.67495  12.16826
611.6758  11.990731
610.67666  12.46105
609.67752  11.967176
608.67837  11.945183
607.67923  12.069488
606.68009  12.127562
605.68094  12.335335
604.6818  12.16308
603.68266  12.114057
602.68351  12.033913
601.68437  12.442145
600.68522  12.242793
599.68608  12.221787
598.68694  12.110195
597.68779  12.500648
596.68865  12.431121
595.68951  12.286478
594.69036  12.268315
593.69122  11.965804
592.69208  12.204833
591.69293  12.186736
590.69379  12.526794
589.69465  12.703037
588.6955  12.133523
587.69636  12.399889
586.69722  12.669719
585.69807  12.580465
584.69893  12.606047
583.69979  12.506253
582.70064  12.633453
581.7015  12.540969
580.70236  12.733591
579.70321  12.742104
578.70407  12.499662
577.70493  12.510258
576.70578  12.640622
575.70664  12.713842
574.70749  12.6179
573.70835  12.590424
572.70921  12.578027
571.71006  12.810705
570.71092  12.459263
569.71178  12.405515
568.71263  12.857568
567.71349  12.799245
566.71435  12.425705
565.7152  12.761899
564.71606  12.607157
563.71692  12.463189
562.71777  12.028436
561.71863  12.297791
560.71949  12.181957
559.72034  12.434618
558.7212  12.747228
557.72206  12.51439
556.72291  12.620213
555.72377  12.737409
554.72463  12.708782
553.72548  12.668983
552.72634  12.398202
551.72719  12.489
550.72805  12.589313
549.72891  12.707525
548.72976  12.350389
547.73062  12.17933
546.73148  11.936985
545.73233  11.473186
544.73319  11.596932
543.73405  11.156627
542.7349  10.935197
541.73576  10.75491
540.73662  10.669535
539.73747  10.331612
538.73833  10.444203
537.73919  10.516223
536.74004  10.587912
535.7409  11.972042
534.74176  15.35682
533.74261  19.807001
532.74347  20.897932
531.74433  25.485541
530.74518  17.276733
529.74604  10.837464
528.7469  10.263219
527.74775  9.9219444
526.74861  9.8449393
525.74946  10.178365
524.75032  9.8695334
523.75118  10.034436
522.75203  10.204452
521.75289  10.173804
520.75375  10.225145
519.7546  10.134519
518.75546  10.234789
517.75632  10.228546
516.75717  10.120163
515.75803  10.007881
514.75889  9.8972252
513.75974  9.8783117
512.7606  9.9063875
511.76146  10.209111
510.76231  10.090754
509.76317  10.24491
508.76403  10.029136
507.76488  10.288596
506.76574  10.319632
505.7666  10.23053
504.76745  10.312103
503.76831  10.442426
502.76916  10.509166
501.77002  10.176977
500.77088  10.408
499.77173  10.412774
498.77259  10.323494
497.77345  10.142824
496.7743  10.51537
495.77516  10.664552
494.77602  10.144751
493.77687  10.160129
492.77773  10.136082
491.77859  10.185604
490.77944  10.433088
489.7803  10.456709
488.78116  10.449076
487.78201  10.251064
486.78287  10.296557
485.78373  10.630692
484.78458  10.527586
483.78544  10.576874
482.7863  10.618535
481.78715  10.50345
480.78801  10.630329
479.78887  10.256609
478.78972  10.206296
477.79058  10.254159
476.79143  10.461497
475.79229  10.269647
474.79315  10.218876
473.794  10.343031
472.79486  10.081553
471.79572  10.60814
470.79657  10.850075
469.79743  10.727612
468.79829  10.993263
467.79914  10.656676
466.8  10.981098
465.80086  10.953281
464.80171  10.648498
463.80257  10.340317
462.80343  10.49556
461.80428  10.319172
460.80514  10.152873
459.806  10.282631
458.80685  10.499072
457.80771  10.578108
456.80857  10.117963
455.80942  10.188519
454.81028  10.148634
453.81113  10.055753
452.81199  10.239647
451.81285  10.123422
450.8137  10.117024
449.81456  10.240445
448.81542  10.521755
447.81627  10.09342
446.81713  10.251937
445.81799  10.299296
444.81884  10.227549
443.8197  10.283529
442.82056  10.538791
441.82141  10.646689
440.82227  10.398723
439.82313  10.481552
438.82398  10.612563
437.82484  10.394688
436.8257  10.551297
435.82655  10.654214
434.82741  10.291308
433.82827  10.274246
432.82912  10.488973
431.82998  10.739268
430.83084  10.514012
429.83169  10.432408
428.83255  10.22102
427.8334  9.9702467
426.83426  10.407603
425.83512  10.390708
424.83597  10.48867
423.83683  10.399619
422.83769  10.55138
421.83854  10.401976
420.8394  10.455952
419.84026  10.367867
418.84111  10.164686
417.84197  10.339835
416.84283  10.437915
415.84368  10.009491
414.84454  10.049905
413.8454  10.049357
412.84625  10.228187
411.84711  10.226615
410.84797  10.337514
409.84882  10.523991
408.84968  10.614879
407.85054  11.043554
406.85139  11.895025
405.85225  11.833958
404.8531  11.482287
403.85396  11.066124
402.85482  10.767819
401.85567  10.84917
400.85653  10.507889
399.85739  10.064897
398.85824  10.15182
397.8591  9.8801767
396.85996  9.8813932
395.86081  9.7568221
394.86167  9.8946618
393.86253  10.026824
392.86338  9.5513618
391.86424  9.5300294
390.8651  9.591004
389.86595  9.4998659
388.86681  9.2572181
387.86767  9.5403175
386.86852  9.4346356
385.86938  9.1637033
384.87024  9.3413329
383.87109  9.4071373
382.87195  9.4833335
381.87281  9.518602
380.87366  9.6568383
379.87452  9.8352669
378.87537  9.8143069
377.87623  9.720557
376.87709  9.8037532
375.87794  9.858417
374.8788  9.6934336
373.87966  9.7137253
372.88051  9.7854548
371.88137  9.722506
370.88223  9.8483371
369.88308  10.053931
368.88394  10.074199
367.8848  9.9915152
366.88565  9.736057
365.88651  10.027799
364.88737  9.9791256
363.88822  10.102399
362.88908  10.088573
361.88994  10.030358
360.89079  9.717993
359.89165  9.8068265
358.89251  9.8172801
357.89336  10.219594
356.89422  10.103326
355.89507  9.9400612
354.89593  10.139934
353.89679  10.325309
352.89764  10.496694
351.8985  10.563684
350.89936  10.368883
349.90021  10.518529
348.90107  10.812966
347.90193  10.239553
346.90278  10.247622
345.90364  10.461345
344.9045  10.300669
343.90535  10.051299
342.90621  10.329171
341.90707  10.314778
340.90792  10.097104
339.90878  10.251975
338.90964  10.184069
337.91049  10.155883
336.91135  10.264358
335.91221  10.426826
334.91306  10.554251
333.91392  10.35918
332.91478  10.524725
331.91563  10.483631
330.91649  10.126881
329.91734  10.498236
328.9182  10.236735
327.91906  10.253825
326.91991  10.840636
325.92077  10.520095
324.92163  10.447467
323.92248  10.563043
322.92334  10.739261
321.9242  10.966176
320.92505  10.670589
319.92591  10.902508
318.92677  10.855286
317.92762  10.951801
316.92848  10.626699
315.92934  10.84761
314.93019  10.726137
313.93105  10.866424
312.93191  10.867055
311.93276  10.868693
310.93362  10.791495
309.93448  11.042721
308.93533  11.184522
307.93619  11.031061
306.93704  10.886079
305.9379  10.874439
304.93876  10.970767
303.93961  10.746017
302.94047  10.603308
301.94133  10.834659
300.94218  10.55032
299.94304  10.511848
298.9439  10.178727
297.94475  10.22539
296.94561  9.9230093
295.94647  9.5741476
294.94732  9.719817
293.94818  9.9091828
292.94904  9.571957
291.94989  10.117382
290.95075  10.298098
289.95161  10.954958
288.95246  11.929462
287.95332  18.431299
286.95418  33.387163
285.95503  25.109477
284.95589  11.224655
283.95675  9.6447842
282.9576  9.2469295
281.95846  9.3199253
280.95931  9.0532948
279.96017  9.1524623
278.96103  8.9701362
277.96188  9.0468904
276.96274  8.9743781
275.9636  9.0589384
274.96445  9.0514142
273.96531  8.9174316
272.96617  9.2892541
271.96702  9.1145856
270.96788  9.0389085
269.96874  9.1633685
268.96959  9.3491627
267.97045  9.356717
266.97131  9.0620441
265.97216  8.9931649
264.97302  8.8084162
263.97388  8.8422569
262.97473  8.7853865
261.97559  8.9736055
260.97645  9.0593833
259.9773  8.9191332
258.97816  8.9514447
257.97901  8.9577301
256.97987  8.9623952
255.98073  8.5757209
254.98158  8.4049853
253.98244  8.5598988
252.9833  8.4552296
251.98415  8.3703177
250.98501  8.0688326
249.98587  8.3629015
248.98672  8.1083694
247.98758  7.8827172
246.98844  8.2825796
245.98929  8.5953718
244.99015  9.0506013
243.99101  9.9738216
242.99186  10.543644
241.99272  9.3728528
240.99358  8.2961068
239.99443  7.4938154
238.99529  7.1690374
237.99615  6.9403611
236.997  6.4890101
235.99786  6.8457672
234.99872  7.3929449
233.99957  8.1753345
233.00043  9.6447405
232.00128  11.000432
231.00214  10.624752
230.003  8.6521897
229.00385  7.1693665
228.00471  6.3844939
227.00557  5.7277768
226.00642  5.4675189
225.00728  5.0752684
224.00814  4.7610441
223.00899  4.6218546
222.00985  4.6173383
221.01071  4.5400227
220.01156  4.4007962
219.01242  4.3974448
218.01328  4.252309
217.01413  4.2659579
216.01499  4.2202964
215.01585  4.1134655
214.0167  4.173285
213.01756  3.952025
212.01842  4.2123793
211.01927  4.1276207
210.02013  4.0269173
209.02099  4.1737795
208.02184  4.0806455
207.0227  4.121588
206.02355  4.122122
205.02441  4.1849279
204.02527  4.3214026
203.02612  4.4900767
202.02698  4.5780761
201.02784  4.5641186
200.02869  4.3470564
199.02955  4.151595
198.03041  3.9960452
197.03126  4.1764358
196.03212  4.1418101
195.03298  4.211359
194.03383  4.1161863
193.03469  4.1588934
192.03555  4.0538303
191.0364  4.0926361
190.03726  4.2604198
189.03812  4.1168949
188.03897  3.9868248
187.03983  4.0431708
186.04069  4.0630488
185.04154  4.0926941
184.0424  4.1181842
183.04325  4.1364314
182.04411  4.1619915
181.04497  4.325711
180.04582  4.4463136
179.04668  4.4747026
178.04754  4.3411187
177.04839  4.3006033
176.04925  4.1063811
175.05011  3.8978045
174.05096  4.1467996
173.05182  4.2161845
172.05268  4.3290257
171.05353  4.0994444
170.05439  4.2135521
169.05525  4.2876428
168.0561  4.0376973
167.05696  4.0318422
166.05782  4.2372585
165.05867  4.0761579
164.05953  4.0911465
163.06039  4.1671106
162.06124  4.0038034
161.0621  4.0884974
160.06296  4.2074962
159.06381  4.0792669
158.06467  4.0832628
157.06552  4.2517179
156.06638  4.36577
155.06724  4.5633467
154.06809  4.3018567
153.06895  4.1036817
152.06981  4.224768
151.07066  4.1675043
150.07152  4.2725361
149.07238  4.1113207
148.07323  4.0033189
147.07409  4.2544483
146.07495  4.2821667
145.0758  4.3435749
144.07666  4.2569937
143.07752  4.0734433
142.07837  4.1496731
141.07923  4.281257
140.08009  4.1889144
139.08094  4.0563786
138.0818  4.1522975
137.08266  4.0940222
136.08351  4.2902686
135.08437  4.1664131
134.08522  4.1515494
133.08608  4.2194525
132.08694  4.2886093
131.08779  4.374199
130.08865  4.348429
129.08951  4.3763192
128.09036  4.2576987
127.09122  4.2148281
126.09208  4.2657557
125.09293  4.368749
124.09379  4.120008
123.09465  4.4946909
122.0955  4.3303472
121.09636  4.3537522
120.09722  4.2506701
119.09807  4.2678556
118.09893  4.3299881
117.09979  4.2433654
116.10064  4.4314164
115.1015  4.3153438
114.10236  4.2958281
113.10321  4.2006831
112.10407  4.1515687
111.10493  4.1940712
110.10578  4.3091342
109.10664  4.2655625
108.10749  4.3121958
107.10835  4.1532143
106.10921  4.1754079
105.11006  4.226901
104.11092  4.7310588
103.11178  4.707147
102.11263  4.3246977
101.11349  4.1659486
100.11435  4.2020663
99.115203  4.2566477
98.11606  4.1808226
97.116916  4.0918227
96.117773  4.2744761
95.11863  4.6147217
94.119486  5.1489561
93.120343  4.9437247
92.121199  5.1411397
91.122056  5.0891724
90.122912  4.2909725
89.123769  3.9342045
88.124625  4.0685756
87.125482  4.0087995
86.126338  3.9551142
85.127195  4.0783476
84.128051  4.2001993
83.128908  4.0242692
82.129764  4.1086535
81.130621  4.3070072
80.131478  4.2294942
79.132334  4.1023288
78.133191  3.9797781
77.134047  4.0052399
76.134904  4.0470988
75.13576  4.2044317
74.136617  4.4373345
73.137473  4.3872803
72.13833  4.1259512
71.139186  3.9871605
70.140043  3.8822501
69.140899  3.9453706
68.141756  3.9055829
67.142612  3.7244225
66.143469  3.8786183
65.144325  3.809219
64.145182  3.8499765
63.146039  3.7293627
62.146895  3.6557109
61.147752  3.9309591
60.148608  3.9522758
59.149465  4.0714767
58.150321  3.8424025
57.151178  3.8709308
56.152034  3.7685396
55.152891  3.8391162
54.153747  3.7587593
53.154604  3.8611484
52.15546  3.7774087
51.156317  3.753604
50.157173  3.7945937
49.15803  3.7588346
48.158887  3.9010374
47.159743  4.0824156
46.1606  3.7782979
45.161456  3.8415839
44.162313  3.5484582
43.163169  3.4147762
42.164026  3.2905455
41.164882  3.0776809
40.165739  2.9705306
39.166595  3.3458989
38.167452  3.2028306
37.168308  2.5131994
36.169165  2.1961919
35.170021  1.9207404
34.170878  1.9236216
33.171734  1.7976103
32.172591  1.6667389
31.173448  1.9768808
30.174304  6.4275911
29.175161  10.456462
28.176017  10.666036
27.176874  12.18956
26.17773  3.1489551
25.178587  1.9806073
24.179443  2.1942514
23.1803  1.9511519
22.181156  2.0425991
21.182013  1.0946972
20.182869  0.92069577
19.183726  0.96506921
18.184582  0.92932253
17.185439  0.85049596
16.186296  0.84166316
15.187152  0.82876243
14.188009  0.7778623
13.188865  0.74581568
12.189722  0.68668853
11.190578  0.68780434
10.191435  0.83227275
9.1922912  0.89149782
8.1931478  0.92119043
7.1940043  0.83790128
6.1948608  0.82462235
5.1957173  0.76284172
4.1965739  0.59746389
3.1974304  0.55730967
2.1982869  0.73127191
1.1991435  0.60890645
0.2  0.49162861

# Region:            Si2s
# Spectrum ID:       26
# Acquisition Date:  06/23/22 16:30:30 UTC
# Analysis Method:   XPS
# Analyzer:          Analyzer
# Analyzer Lens:     LargeArea:1.5kV
# Analyzer Slit:     4:3x20\B:open
# Scan Mode:         FixedAnalyzerTransmission
# Curves/Scan:       1
# Values/Curve:      54
# Dwell Time:        0.5
# Excitation Energy: 1486.71
# Binding Energy:    160
# Pass Energy:       30
# Bias Voltage:      -1
# Detector Voltage:  1800
# Eff. Workfunction: 4.498
# Source:            XR 50 MF (UXC1000)
# Comment:
# OrdinateRange:     [-18.000000, 18.000000]
#
# Cycle: 0
# Number of Scans: 10
#
# Cycle: 0, Curve: 0
# Acquisition Date: 06/23/22 16:30:30 UTC
#
# ColumnLabels: energy counts/s
#
160  2.4418707
159.81132  2.2393947
159.62264  2.250947
159.43396  2.1999518
159.24528  2.2584493
159.0566  2.3250545
158.86792  2.3362902
158.67925  2.3398675
158.49057  2.3273412
158.30189  2.3273192
158.11321  2.3369125
157.92453  2.3320964
157.73585  2.4408959
157.54717  2.4089998
157.35849  2.3832744
157.16981  2.398688
156.98113  2.3776991
156.79245  2.409312
156.60377  2.3646488
156.41509  2.3225217
156.22642  2.4141051
156.03774  2.3798549
155.84906  2.5964879
155.66038  2.5513203
155.4717  2.4777643
155.28302  2.5453837
155.09434  2.5872293
154.90566  2.6617133
154.71698  2.5107674
154.5283  2.6083205
154.33962  2.6268457
154.15094  2.5671086
153.96226  2.3807778
153.77358  2.4461109
153.58491  2.4064344
153.39623  2.4301231
153.20755  2.4546841
153.01887  2.3781303
152.83019  2.3453167
152.64151  2.2919918
152.45283  2.3234141
152.26415  2.3333527
152.07547  2.2934206
151.88679  2.4174774
151.69811  2.4192014
151.50943  2.3372593
151.32075  2.3670698
151.13208  2.4699146
150.9434  2.3438624
150.75472  2.3100936
150.56604  2.3306772
150.37736  2.3356638
150.18868  2.3777755
150  2.4552439
