# Created by:        SpecsLab Prodigy, Version 4.74.2-r95700
#
# XY-Serializer Export Settings:
#   Comment Prefix:           #
#   Output Meta Data:         yes
#   Energy Axis:              Binding Energy
#   Count Rate:               Counts per Second
#   Separate Scan Data:       no
#   Separate Channel Data:    no
#   External Channel Data:    yes
#   Transmission Function:    no
#   Error Bar:                no
#   Operation Results:        yes
#   Time Zone Format:         UTC
#
# Group:             z546p5_x4p5
#
# Region:            overview
# Spectrum ID:       2
# Acquisition Date:  06/23/22 12:30:13 UTC
# Analysis Method:   XPS
# Analyzer:          Analyzer
# Analyzer Lens:     MediumArea:1.5kV
# Analyzer Slit:     4:3x20\B:open
# Scan Mode:         FixedAnalyzerTransmission
# Curves/Scan:       1
# Values/Curve:      941
# Dwell Time:        0.1
# Excitation Energy: 1486.71
# Binding Energy:    936.71
# Pass Energy:       50
# Bias Voltage:      -1
# Detector Voltage:  1800
# Eff. Workfunction: 4.498
# Source:            XR 50 MF (UXC1000)
# Comment:           x=3.5, y=13 z=554 (center), th=40, slit 4, Iris 40, RT=299K
# OrdinateRange:     [-7.000000, 7.000000]
#
# Cycle: 0
# Number of Scans: 1
#
# Cycle: 0, Curve: 0
# Acquisition Date: 06/23/22 12:30:13 UTC
#
# ColumnLabels: energy counts/s
#
936.71  8.111727
935.71  8.0148408
934.71  9.7957617
933.71  7.87422
932.71  7.2708879
931.71  6.7969122
930.71  6.9403932
929.71  7.5284122
928.71  6.4146927
927.71  7.4106386
926.71  8.9503431
925.71  8.0692763
924.71  6.4865657
923.71  7.3822658
922.71  8.3106661
921.71  7.3405487
920.71  6.9276989
919.71  7.3745438
918.71  8.5564667
917.71  7.7559055
916.71  7.4238713
915.71  7.8607871
914.71  6.6570917
913.71  7.6388192
912.71  8.1364538
911.71  8.4345652
910.71  7.2336803
909.71  7.1766205
908.71  7.8218043
907.71  8.912486
906.71  8.199067
905.71  8.3666525
904.71  8.402566
903.71  8.8645279
902.71  7.9915659
901.71  9.1677788
900.71  10.177964
899.71  9.099314
898.71  8.6971975
897.71  8.8102779
896.71  8.0602038
895.71  8.7752891
894.71  6.9696699
893.71  7.1417718
892.71  8.9113124
891.71  9.8710451
890.71  9.490315
889.71  8.9233292
888.71  10.250519
887.71  9.6646941
886.71  7.9566973
885.71  9.5029874
884.71  8.4321187
883.71  8.3299016
882.71  8.2221055
881.71  7.3001983
880.71  8.8803111
879.71  7.8078353
878.71  7.4773949
877.71  7.2782447
876.71  8.1343203
875.71  9.5702353
874.71  9.3104446
873.71  9.4554648
872.71  9.031753
871.71  8.8268382
870.71  9.1734659
869.71  8.9817879
868.71  9.4866608
867.71  8.6237454
866.71  8.4844025
865.71  9.7247551
864.71  10.079107
863.71  9.2518634
862.71  8.4418261
861.71  9.1731387
860.71  10.094029
859.71  9.4845153
858.71  9.9713717
857.71  10.254042
856.71  9.946249
855.71  9.9317215
854.71  10.067053
853.71  10.29708
852.71  9.8009354
851.71  9.3018246
850.71  8.7269129
849.71  9.402367
848.71  8.5186707
847.71  8.5700394
846.71  8.5398475
845.71  9.6744662
844.71  9.6896935
843.71  8.6973618
842.71  10.155691
841.71  9.2085421
840.71  8.3659639
839.71  9.0487257
838.71  11.030383
837.71  9.7369834
836.71  8.6535053
835.71  10.090646
834.71  10.236771
833.71  10.650102
832.71  10.202397
831.71  9.6133972
830.71  9.6634474
829.71  10.344889
828.71  10.529185
827.71  9.6554581
826.71  10.075069
825.71  11.672958
824.71  11.99596
823.71  10.801385
822.71  9.7788091
821.71  10.007155
820.71  11.335421
819.71  10.567638
818.71  10.524221
817.71  11.131367
816.71  9.6719619
815.71  10.779698
814.71  10.673387
813.71  10.656349
812.71  10.776825
811.71  11.376899
810.71  11.348518
809.71  10.678184
808.71  10.978612
807.71  10.438617
806.71  10.426208
805.71  9.9178704
804.71  10.848951
803.71  10.43811
802.71  10.027833
801.71  10.732338
800.71  10.659353
799.71  11.253694
798.71  11.826862
797.71  13.517157
796.71  12.001399
795.71  10.238768
794.71  10.386654
793.71  9.6881503
792.71  10.529754
791.71  10.100688
790.71  9.9157605
789.71  10.241565
788.71  9.8623883
787.71  9.7424882
786.71  10.252706
785.71  9.2921119
784.71  10.993576
783.71  13.657423
782.71  14.35173
781.71  14.469966
780.71  13.743674
779.71  9.6627656
778.71  9.8397716
777.71  10.28305
776.71  9.9919629
775.71  11.219822
774.71  9.6987325
773.71  10.384379
772.71  10.217607
771.71  9.9638443
770.71  10.936516
769.71  11.051161
768.71  10.289517
767.71  10.194214
766.71  11.854348
765.71  9.6532225
764.71  10.054737
763.71  10.292051
762.71  9.6479497
761.71  10.517287
760.71  11.062536
759.71  11.369265
758.71  11.337649
757.71  10.203044
756.71  9.7472515
755.71  10.872916
754.71  10.939911
753.71  10.367185
752.71  10.876883
751.71  11.432002
750.71  10.621671
749.71  9.6071041
748.71  11.558499
747.71  11.106217
746.71  10.84115
745.71  10.558616
744.71  11.683531
743.71  10.455769
742.71  9.660856
741.71  10.880485
740.71  9.2527065
739.71  11.084026
738.71  12.585667
737.71  10.528897
736.71  10.94671
735.71  11.67799
734.71  11.694518
733.71  11.512908
732.71  12.514293
731.71  11.779605
730.71  11.33879
729.71  11.55012
728.71  10.193948
727.71  10.847402
726.71  10.959491
725.71  10.306746
724.71  11.636958
723.71  12.25494
722.71  12.302858
721.71  11.707336
720.71  12.000117
719.71  11.761838
718.71  10.456394
717.71  10.604962
716.71  10.382478
715.71  10.643288
714.71  11.331062
713.71  11.818251
712.71  12.933972
711.71  9.9446926
710.71  11.564635
709.71  11.145436
708.71  11.586301
707.71  11.443211
706.71  11.314224
705.71  12.306199
704.71  12.275672
703.71  12.887479
702.71  10.659823
701.71  10.919195
700.71  11.804529
699.71  12.100564
698.71  12.700721
697.71  12.611628
696.71  10.55351
695.71  10.829569
694.71  12.37066
693.71  12.229758
692.71  12.852795
691.71  11.734316
690.71  11.942623
689.71  12.849418
688.71  13.731997
687.71  11.985066
686.71  11.983652
685.71  11.922177
684.71  12.657874
683.71  11.057121
682.71  11.057201
681.71  12.216576
680.71  13.305586
679.71  12.823297
678.71  11.862211
677.71  12.53259
676.71  12.898686
675.71  13.318056
674.71  11.965404
673.71  11.759272
672.71  11.644788
671.71  12.475568
670.71  13.360104
669.71  12.87163
668.71  12.407242
667.71  12.692681
666.71  12.324468
665.71  10.879319
664.71  13.366557
663.71  13.369503
662.71  13.711447
661.71  12.549346
660.71  12.270419
659.71  13.029076
658.71  13.96285
657.71  12.362607
656.71  11.245435
655.71  11.978642
654.71  12.36224
653.71  12.309324
652.71  14.858486
651.71  13.964737
650.71  14.165085
649.71  13.270743
648.71  11.834605
647.71  11.36224
646.71  11.458122
645.71  14.314138
644.71  13.321708
643.71  13.498031
642.71  14.19528
641.71  13.199151
640.71  12.925961
639.71  12.96927
638.71  14.397437
637.71  14.880054
636.71  14.75831
635.71  13.936944
634.71  13.610377
633.71  13.387592
632.71  14.844779
631.71  14.574366
630.71  15.041119
629.71  13.356409
628.71  14.969624
627.71  13.881321
626.71  15.413779
625.71  13.071755
624.71  13.810207
623.71  14.197271
622.71  13.738437
621.71  13.214075
620.71  13.654444
619.71  12.686126
618.71  14.524261
617.71  13.773248
616.71  14.313208
615.71  13.668914
614.71  13.326261
613.71  14.088862
612.71  16.161989
611.71  14.270493
610.71  14.43581
609.71  15.000398
608.71  15.043734
607.71  13.186765
606.71  14.92089
605.71  13.488908
604.71  13.197424
603.71  14.158263
602.71  15.504955
601.71  15.932354
600.71  17.141354
599.71  14.078151
598.71  15.055668
597.71  14.321877
596.71  12.744623
595.71  15.219301
594.71  16.86978
593.71  14.931791
592.71  14.132687
591.71  14.967471
590.71  14.909776
589.71  14.985553
588.71  14.409933
587.71  14.621117
586.71  15.6368
585.71  12.80985
584.71  13.07494
583.71  12.436116
582.71  14.01949
581.71  15.342698
580.71  16.485907
579.71  14.39031
578.71  14.752508
577.71  15.567913
576.71  14.591614
575.71  13.722943
574.71  16.17684
573.71  17.00367
572.71  15.577081
571.71  15.506939
570.71  15.906969
569.71  15.725145
568.71  14.561538
567.71  15.400683
566.71  16.50022
565.71  15.635008
564.71  15.353685
563.71  14.288801
562.71  15.019836
561.71  16.306759
560.71  15.857205
559.71  15.019361
558.71  16.179832
557.71  15.528577
556.71  15.26171
555.71  17.4397
554.71  16.012887
553.71  15.684985
552.71  17.714781
551.71  16.107117
550.71  15.61747
549.71  15.258516
548.71  16.501192
547.71  15.949502
546.71  14.852614
545.71  16.228408
544.71  13.007168
543.71  13.739435
542.71  14.451163
541.71  13.317796
540.71  11.788792
539.71  13.056821
538.71  14.126744
537.71  13.527412
536.71  13.313955
535.71  16.671332
534.71  21.463209
533.71  23.553364
532.71  23.74885
531.71  25.998554
530.71  18.87151
529.71  15.25212
528.71  13.034161
527.71  12.615205
526.71  11.597888
525.71  13.566245
524.71  13.235414
523.71  14.08008
522.71  14.918777
521.71  12.979277
520.71  12.54911
519.71  12.407148
518.71  11.057921
517.71  12.487623
516.71  13.220091
515.71  13.030473
514.71  13.644137
513.71  11.68202
512.71  13.602477
511.71  13.506164
510.71  12.658995
509.71  14.329606
508.71  13.513775
507.71  11.896517
506.71  13.254084
505.71  12.665081
504.71  12.719201
503.71  11.779414
502.71  13.130801
501.71  13.528085
500.71  12.927594
499.71  12.328817
498.71  12.086176
497.71  13.219246
496.71  13.289386
495.71  12.750241
494.71  12.660564
493.71  13.748285
492.71  14.596591
491.71  13.685256
490.71  12.759023
489.71  12.532756
488.71  12.020211
487.71  12.637939
486.71  12.522356
485.71  14.21335
484.71  13.255323
483.71  14.525491
482.71  13.663383
481.71  13.353597
480.71  13.278087
479.71  13.691824
478.71  12.688567
477.71  13.296032
476.71  13.235478
475.71  12.93169
474.71  12.304756
473.71  12.698059
472.71  13.344095
471.71  13.268605
470.71  12.234527
469.71  13.55725
468.71  15.983622
467.71  14.299319
466.71  15.651807
465.71  12.598623
464.71  12.928165
463.71  13.224965
462.71  13.487457
461.71  13.29326
460.71  13.449512
459.71  13.358568
458.71  13.880945
457.71  12.761639
456.71  16.130618
455.71  13.951703
454.71  14.139195
453.71  14.44518
452.71  12.396124
451.71  13.118636
450.71  13.247424
449.71  11.989091
448.71  12.140093
447.71  12.869179
446.71  12.020013
445.71  13.725293
444.71  13.224266
443.71  13.848428
442.71  13.238371
441.71  13.477439
440.71  13.842443
439.71  12.668279
438.71  14.877288
437.71  13.794559
436.71  13.816031
435.71  14.298923
434.71  15.112602
433.71  14.30243
432.71  15.29285
431.71  13.345843
430.71  12.952134
429.71  13.624988
428.71  13.943783
427.71  13.55625
426.71  13.412979
425.71  12.570756
424.71  13.483463
423.71  13.796685
422.71  12.452333
421.71  13.491264
420.71  14.521482
419.71  14.066573
418.71  14.855337
417.71  14.041263
416.71  12.143039
415.71  12.04785
414.71  13.059866
413.71  13.467858
412.71  14.646356
411.71  13.473929
410.71  11.675247
409.71  14.592638
408.71  14.239451
407.71  13.048822
406.71  14.061769
405.71  14.121903
404.71  15.988058
403.71  14.010018
402.71  12.946959
401.71  13.26671
400.71  13.666335
399.71  13.640496
398.71  13.579332
397.71  12.647529
396.71  12.802243
395.71  12.438583
394.71  12.944099
393.71  13.112296
392.71  13.555074
391.71  12.752501
390.71  13.065916
389.71  12.118318
388.71  11.885212
387.71  13.236619
386.71  12.276305
385.71  12.18122
384.71  13.039784
383.71  13.385633
382.71  13.606064
381.71  14.316533
380.71  13.56937
379.71  12.465941
378.71  13.910212
377.71  14.084459
376.71  12.539854
375.71  13.052461
374.71  12.319642
373.71  11.404574
372.71  12.997929
371.71  13.522255
370.71  13.475296
369.71  12.918573
368.71  13.620607
367.71  14.278439
366.71  13.098915
365.71  14.295783
364.71  13.213058
363.71  14.33511
362.71  13.146178
361.71  15.352943
360.71  13.864564
359.71  13.637749
358.71  14.521016
357.71  14.431703
356.71  13.933368
355.71  15.249732
354.71  14.895606
353.71  14.070272
352.71  13.287115
351.71  14.276008
350.71  14.031369
349.71  14.25972
348.71  13.347876
347.71  14.397257
346.71  14.622122
345.71  14.37953
344.71  13.350474
343.71  15.017821
342.71  14.017058
341.71  15.283696
340.71  14.611628
339.71  15.598097
338.71  14.925818
337.71  17.026385
336.71  13.976234
335.71  12.624972
334.71  14.694038
333.71  14.162632
332.71  13.405796
331.71  14.594904
330.71  15.990109
329.71  14.040032
328.71  13.102715
327.71  14.10593
326.71  15.876825
325.71  14.813518
324.71  15.145371
323.71  16.04956
322.71  15.045684
321.71  15.949872
320.71  16.495776
319.71  14.761388
318.71  14.224798
317.71  13.628202
316.71  13.083897
315.71  13.687314
314.71  15.213361
313.71  15.241136
312.71  14.715375
311.71  15.182343
310.71  14.334128
309.71  14.779816
308.71  15.757104
307.71  16.932144
306.71  15.951341
305.71  14.736318
304.71  15.930613
303.71  14.752565
302.71  15.274336
301.71  15.004739
300.71  14.972351
299.71  14.236679
298.71  14.830223
297.71  14.100115
296.71  14.515948
295.71  13.662495
294.71  14.187041
293.71  11.884198
292.71  12.780357
291.71  13.286668
290.71  15.606492
289.71  15.845974
288.71  17.0176
287.71  29.01319
286.71  43.581311
285.71  31.0406
284.71  14.209525
283.71  12.687303
282.71  12.86658
281.71  13.716704
280.71  11.512968
279.71  10.477916
278.71  12.419725
277.71  12.539702
276.71  13.852156
275.71  13.167919
274.71  11.536387
273.71  12.504256
272.71  14.285943
271.71  14.008451
270.71  13.566367
269.71  12.412859
268.71  10.960859
267.71  12.653923
266.71  11.601793
265.71  12.038773
264.71  10.649319
263.71  10.771478
262.71  11.33726
261.71  11.197898
260.71  13.256701
259.71  11.793673
258.71  10.591068
257.71  11.327452
256.71  11.104424
255.71  11.739817
254.71  12.345416
253.71  10.43509
252.71  9.9526967
251.71  11.217938
250.71  11.356184
249.71  12.010984
248.71  10.307248
247.71  9.7256084
246.71  9.8717761
245.71  11.249693
244.71  11.59955
243.71  13.299144
242.71  11.528135
241.71  11.267212
240.71  10.741988
239.71  10.325887
238.71  9.2282628
237.71  10.160512
236.71  9.072246
235.71  8.6526327
234.71  9.0370332
233.71  10.06121
232.71  10.198261
231.71  11.696249
230.71  11.681168
229.71  10.444352
228.71  8.5901144
227.71  9.2197405
226.71  7.6834493
225.71  7.1974181
224.71  7.0887348
223.71  6.9814361
222.71  6.6309561
221.71  6.7272401
220.71  6.729383
219.71  6.9370738
218.71  5.9488645
217.71  6.0814886
216.71  6.1676621
215.71  6.4898317
214.71  5.6389821
213.71  6.1093148
212.71  6.7682864
211.71  6.3544278
210.71  6.4409788
209.71  7.2132295
208.71  5.8601976
207.71  5.3978383
206.71  6.4161112
205.71  6.5545044
204.71  6.9816775
203.71  6.769712
202.71  6.9041382
201.71  7.9979916
200.71  8.4581411
199.71  7.3212312
198.71  6.1094654
197.71  5.4406296
196.71  6.2306886
195.71  5.9135291
194.71  6.7315244
193.71  5.7769231
192.71  5.9753976
191.71  5.23948
190.71  5.8099062
189.71  6.0645484
188.71  5.8323825
187.71  5.7937124
186.71  6.1290919
185.71  6.1732436
184.71  6.8702691
183.71  6.4755444
182.71  6.3122618
181.71  6.9834261
180.71  7.7127925
179.71  7.1012941
178.71  6.6550357
177.71  6.1548393
176.71  5.923192
175.71  5.7800171
174.71  6.4401212
173.71  6.7150194
172.71  6.4162558
171.71  6.9016644
170.71  7.453538
169.71  7.0391822
168.71  6.0227229
167.71  5.797485
166.71  6.1366134
165.71  5.2337564
164.71  5.5827565
163.71  5.7737374
162.71  5.2323585
161.71  6.1526779
160.71  6.2173694
159.71  6.9694229
158.71  6.8107025
157.71  7.4595639
156.71  7.3807588
155.71  6.4940129
154.71  6.1177355
153.71  6.0426257
152.71  6.1162394
151.71  5.9116229
150.71  6.3512715
149.71  6.4690964
148.71  6.1376341
147.71  5.3551511
146.71  6.3877708
145.71  6.6430886
144.71  6.2104366
143.71  6.6844914
142.71  6.7954687
141.71  6.9085893
140.71  6.4994207
139.71  6.1562029
138.71  6.5126932
137.71  7.5605681
136.71  6.2615645
135.71  7.0971347
134.71  6.3119381
133.71  5.3023804
132.71  5.9510649
131.71  5.9112437
130.71  6.1389896
129.71  5.3429131
128.71  6.0872943
127.71  5.7127128
126.71  7.155059
125.71  5.8649504
124.71  5.6903632
123.71  6.1436515
122.71  6.1751654
121.71  5.6439012
120.71  5.3349912
119.71  5.5078045
118.71  6.0645813
117.71  5.762846
116.71  6.1723721
115.71  6.4723877
114.71  6.2495948
113.71  5.6292911
112.71  5.4574025
111.71  6.3877617
110.71  7.0137808
109.71  6.5180593
108.71  5.9596302
107.71  5.7466908
106.71  5.3889728
105.71  5.4399169
104.71  6.0352526
103.71  6.6705174
102.71  6.7072202
101.71  5.3281179
100.71  5.2150455
99.71  5.6722317
98.71  5.844432
97.71  6.1263358
96.71  6.6048105
95.71  7.0051726
94.71  7.1879301
93.71  7.8920468
92.71  7.2725458
91.71  8.2311988
90.71  6.4027409
89.71  5.1866031
88.71  5.1510426
87.71  4.8939951
86.71  5.1854329
85.71  6.0228193
84.71  5.7962377
83.71  5.8564719
82.71  5.8480536
81.71  5.194994
80.71  4.6879052
79.71  5.4258104
78.71  5.2802286
77.71  5.1323329
76.71  5.6544612
75.71  5.6206151
74.71  6.5657259
73.71  5.991766
72.71  6.2484743
71.71  6.2518297
70.71  5.5621143
69.71  4.9823484
68.71  5.8280872
67.71  5.6162987
66.71  5.1879414
65.71  5.2679616
64.71  4.3609297
63.71  4.7491211
62.71  4.8386857
61.71  4.5565923
60.71  4.59828
59.71  5.3203509
58.71  5.3444353
57.71  4.5556927
56.71  5.2994507
55.71  5.2032675
54.71  5.6371846
53.71  4.7713034
52.71  4.5513596
51.71  4.7722608
50.71  4.5007055
49.71  4.7244894
48.71  5.0283149
47.71  5.5236284
46.71  4.9607518
45.71  5.0308396
44.71  4.1252154
43.71  3.7965195
42.71  4.1997409
41.71  4.1805611
40.71  3.5680034
39.71  3.7978657
38.71  4.0277862
37.71  3.8181415
36.71  2.4969516
35.71  1.9703495
34.71  2.1243584
33.71  1.724754
32.71  2.0796438
31.71  1.8698962
30.71  3.1759556
29.71  9.250775
28.71  8.3556205
27.71  14.110938
26.71  8.0870532
25.71  2.0122305
24.71  2.1221862
23.71  2.1002183
22.71  2.0401398
21.71  1.8140025
20.71  1.3847958
19.71  1.1240497
18.71  1.0696859
17.71  1.0808883
16.71  1.166421
15.71  1.1532142
14.71  0.75885177
13.71  0.70926999
12.71  0.60035439
11.71  0.56315981
10.71  0.64285675
9.71  0.95934324
8.71  1.2507628
7.71  0.88824128
6.71  1.326582
5.71  0.84748781
4.71  0.5052195
3.71  0.47215688
2.71  0.44443917
1.71  0.47926679
0.71  0.42230127
-0.29  0.41240791
-1.29  0.4105161
-2.29  0.40351248
-3.29  0.67299789

# Region:            O1s
# Spectrum ID:       3
# Acquisition Date:  06/23/22 12:32:18 UTC
# Analysis Method:   XPS
# Analyzer:          Analyzer
# Analyzer Lens:     LargeArea:1.5kV
# Analyzer Slit:     4:3x20\B:open
# Scan Mode:         FixedAnalyzerTransmission
# Curves/Scan:       1
# Values/Curve:      201
# Dwell Time:        0.5
# Excitation Energy: 1486.71
# Binding Energy:    541.71
# Pass Energy:       30
# Bias Voltage:      -1
# Detector Voltage:  1800
# Eff. Workfunction: 4.498
# Source:            XR 50 MF (UXC1000)
# Comment:
# OrdinateRange:     [-18.000000, 18.000000]
#
# Cycle: 0
# Number of Scans: 1
#
# Cycle: 0, Curve: 0
# Acquisition Date: 06/23/22 12:32:18 UTC
#
# ColumnLabels: energy counts/s
#
541.71  9.8634856
541.51  9.8415748
541.31  9.7401934
541.11  10.228404
540.91  9.9648505
540.71  9.0647625
540.51  9.560083
540.31  10.655165
540.11  10.281253
539.91  10.754939
539.71  9.7728212
539.51  9.4744777
539.31  9.7193816
539.11  9.7161451
538.91  9.8770812
538.71  9.8245124
538.51  10.713087
538.31  10.572648
538.11  10.528627
537.91  9.7269354
537.71  9.7132871
537.51  10.631663
537.31  10.535919
537.11  9.8291676
536.91  9.9592598
536.71  10.388975
536.51  10.109622
536.31  10.117546
536.11  10.95021
535.91  11.113898
535.71  12.957863
535.51  13.35268
535.31  13.604505
535.11  14.604488
534.91  16.554203
534.71  17.111429
534.51  19.385478
534.31  20.591224
534.11  21.634522
533.91  22.488711
533.71  22.415921
533.51  22.025965
533.31  20.493534
533.11  20.003498
532.91  19.529011
532.71  20.160645
532.51  18.946506
532.31  19.817209
532.11  20.807557
531.91  21.806024
531.71  22.019881
531.51  22.755071
531.31  20.220107
531.11  17.437684
530.91  14.648517
530.71  13.460939
530.51  12.176923
530.31  10.352347
530.11  10.285642
529.91  10.231326
529.71  9.8052089
529.51  9.91178
529.31  9.91775
529.11  9.9830884
528.91  9.2239629
528.71  9.0205845
528.51  9.7244646
528.31  9.6413741
528.11  9.5964551
527.91  9.048404
527.71  9.5199068
527.51  9.4024711
527.31  9.0654872
527.11  9.5908981
526.91  9.3498485
526.71  9.3866675
526.51  9.3925516
526.31  9.049794
526.11  9.1389107
525.91  9.9336149
525.71  10.102396
525.51  10.145893
525.31  9.8589516
525.11  9.6307864
524.91  9.5014586
524.71  9.3340283
524.51  9.7766476
524.31  9.2264848
524.11  9.6212034
523.91  9.6428044
523.71  9.7980492
523.51  9.5776498
523.31  9.3438374
523.11  9.6617366
522.91  9.4733549
522.71  9.6675883
522.51  9.2441561
522.31  9.2729785
522.11  9.6191135
521.91  10.236534
521.71  9.1417154
521.51  9.4534596
521.31  9.4197917
521.11  9.3329619
520.91  10.104519
520.71  9.7928672
520.51  9.4465009
520.31  9.3986742
520.11  9.5456892
519.91  9.8779658
519.71  9.6053358
519.51  9.3341468
519.31  9.870594
519.11  9.2928978
518.91  10.034386
518.71  9.6186334
518.51  9.1933529
518.31  9.6948249
518.11  10.223623
517.91  10.829001
517.71  9.3877656
517.51  8.9860773
517.31  10.022555
517.11  10.028219
516.91  10.492123
516.71  9.8484316
516.51  10.0861
516.31  10.467663
516.11  10.174257
515.91  9.2844182
515.71  9.2782213
515.51  9.2000377
515.31  9.4338665
515.11  9.8643201
514.91  9.5996953
514.71  9.4580316
514.51  9.6089917
514.31  9.5227285
514.11  9.443189
513.91  9.1544387
513.71  10.099617
513.51  9.7867351
513.31  9.4622043
513.11  9.5649363
512.91  10.062325
512.71  10.071292
512.51  9.5962875
512.31  9.4245601
512.11  9.3145776
511.91  9.5052655
511.71  9.5841566
511.51  9.3026349
511.31  9.7989772
511.11  9.8003505
510.91  10.136575
510.71  9.4694039
510.51  9.3164399
510.31  9.7506322
510.11  9.9784088
509.91  9.9759042
509.71  9.898266
509.51  10.108446
509.31  8.9727965
509.11  9.5786448
508.91  10.011445
508.71  8.7034176
508.51  9.3707913
508.31  9.7723214
508.11  10.148306
507.91  9.5942013
507.71  10.493834
507.51  9.6733841
507.31  9.9288487
507.11  9.5865215
506.91  10.190922
506.71  9.9959362
506.51  9.4901749
506.31  9.3065212
506.11  9.5266737
505.91  9.409793
505.71  10.05064
505.51  9.86476
505.31  9.788527
505.11  9.5131156
504.91  9.9362647
504.71  9.5934865
504.51  10.123385
504.31  9.6876935
504.11  9.228052
503.91  9.8705514
503.71  9.4066065
503.51  10.145906
503.31  9.642426
503.11  9.4472945
502.91  9.5719418
502.71  9.7301697
502.51  9.7887671
502.31  9.6226324
502.11  9.6570329
501.91  9.2000109
501.71  9.8346858

# Region:            C1s
# Spectrum ID:       4
# Acquisition Date:  06/23/22 12:57:09 UTC
# Analysis Method:   XPS
# Analyzer:          Analyzer
# Analyzer Lens:     LargeArea:1.5kV
# Analyzer Slit:     4:3x20\B:open
# Scan Mode:         FixedAnalyzerTransmission
# Curves/Scan:       1
# Values/Curve:      81
# Dwell Time:        0.5
# Excitation Energy: 1486.71
# Binding Energy:    299.71
# Pass Energy:       30
# Bias Voltage:      -1
# Detector Voltage:  1800
# Eff. Workfunction: 4.498
# Source:            XR 50 MF (UXC1000)
# Comment:
# OrdinateRange:     [-18.000000, 18.000000]
#
# Cycle: 0
# Number of Scans: 4
#
# Cycle: 0, Curve: 0
# Acquisition Date: 06/23/22 12:57:09 UTC
#
# ColumnLabels: energy counts/s
#
299.71  9.5720005
299.51  9.6069838
299.31  9.4178208
299.11  9.5511633
298.91  9.5513799
298.71  9.5276574
298.51  9.3030296
298.31  9.7273007
298.11  9.6232168
297.91  9.2557927
297.71  9.1575623
297.51  9.2925049
297.31  9.1534842
297.11  9.0429544
296.91  9.3963504
296.71  8.9108507
296.51  9.3492397
296.31  9.4306465
296.11  9.4275969
295.91  8.8494698
295.71  8.9233927
295.51  8.9849312
295.31  8.7858157
295.11  8.7470359
294.91  9.0355966
294.71  9.0392683
294.51  8.2957282
294.31  8.7053071
294.11  9.0404052
293.91  8.5603944
293.71  8.8252071
293.51  8.5079473
293.31  8.7257053
293.11  8.685412
292.91  8.8920999
292.71  8.5885005
292.51  8.4274734
292.31  8.6371291
292.11  9.0214017
291.91  9.2977796
291.71  9.3471727
291.51  9.4240676
291.31  9.1858677
291.11  9.3998988
290.91  9.7364988
290.71  9.5408274
290.51  9.7931315
290.31  9.9894907
290.11  10.02799
289.91  9.8610176
289.71  9.6446209
289.51  10.061065
289.31  10.441791
289.11  10.865504
288.91  11.312929
288.71  12.400516
288.51  13.105031
288.31  15.342648
288.11  17.99621
287.91  21.330593
287.71  25.45263
287.51  30.202508
287.31  35.929884
287.11  40.268845
286.91  42.967228
286.71  43.125409
286.51  39.126767
286.31  33.442084
286.11  25.949312
285.91  19.20542
285.71  14.721325
285.51  11.956446
285.31  9.8141569
285.11  9.3403703
284.91  8.9312137
284.71  8.9842058
284.51  8.4057749
284.31  8.3253204
284.11  8.2427317
283.91  7.8989437
283.71  8.1264362

# Region:            N1s
# Spectrum ID:       5
# Acquisition Date:  06/23/22 12:34:28 UTC
# Analysis Method:   XPS
# Analyzer:          Analyzer
# Analyzer Lens:     LargeArea:1.5kV
# Analyzer Slit:     4:3x20\B:open
# Scan Mode:         FixedAnalyzerTransmission
# Curves/Scan:       1
# Values/Curve:      126
# Dwell Time:        0.5
# Excitation Energy: 1486.71
# Binding Energy:    401.71
# Pass Energy:       30
# Bias Voltage:      -1
# Detector Voltage:  1800
# Eff. Workfunction: 4.498
# Source:            XR 50 MF (UXC1000)
# Comment:
# OrdinateRange:     [-18.000000, 18.000000]
#
# Cycle: 0
# Number of Scans: 1
#
# Cycle: 0, Curve: 0
# Acquisition Date: 06/23/22 12:34:28 UTC
#
# ColumnLabels: energy counts/s
#
401.71  10.134687
401.51  9.9499325
401.31  9.7033746
401.11  9.9625286
400.91  10.152072
400.71  9.3677813
400.51  8.6930732
400.31  9.3990874
400.11  9.3202839
399.91  9.4714978
399.71  9.747597
399.51  10.07295
399.31  9.6020111
399.11  8.4862523
398.91  8.3751024
398.71  9.3008262
398.51  9.5775893
398.31  9.2178469
398.11  9.2566551
397.91  9.4825176
397.71  9.1589848
397.51  9.5356584
397.31  10.037354
397.11  9.4499763
396.91  9.1930391
396.71  9.0145443
396.51  9.4256955
396.31  9.3241415
396.11  9.5762327
395.91  9.0820725
395.71  8.8986731
395.51  9.8415867
395.31  9.7300907
395.11  9.5451783
394.91  9.5234225
394.71  9.549741
394.51  8.821298
394.31  8.9598853
394.11  8.9484009
393.91  9.7411203
393.71  8.8774618
393.51  8.9241577
393.31  10.006412
393.11  9.4121485
392.91  9.0488797
392.71  8.6450165
392.51  8.6719848
392.31  8.9870186
392.11  9.1104958
391.91  9.8505385
391.71  10.152151
391.51  9.554287
391.31  8.9821246
391.11  9.1547567
390.91  9.0154902
390.71  9.4860794
390.51  9.3048264
390.31  8.8263172
390.11  8.5730781
389.91  8.5852985
389.71  8.7891699
389.51  9.2775849
389.31  9.6690177
389.11  8.6566598
388.91  8.41407
388.71  9.0754284
388.51  9.1472128
388.31  9.2479174
388.11  8.768018
387.91  9.1779449
387.71  8.7291225
387.51  9.467452
387.31  9.1443095
387.11  9.5852053
386.91  9.4134798
386.71  9.1217578
386.51  8.762771
386.31  8.796699
386.11  8.9150624
385.91  9.1142932
385.71  9.1941768
385.51  9.6005374
385.31  8.9710656
385.11  9.667033
384.91  9.7104399
384.71  9.3600882
384.51  9.4613319
384.31  9.5374282
384.11  9.6597376
383.91  8.885315
383.71  9.5164121
383.51  9.1724214
383.31  8.7098224
383.11  8.6781091
382.91  9.167456
382.71  8.6736342
382.51  9.1731881
382.31  8.818667
382.11  9.0312328
381.91  9.4522888
381.71  9.8687832
381.51  9.2963165
381.31  9.8621771
381.11  9.2511888
380.91  8.9730171
380.71  9.0472222
380.51  9.9296367
380.31  9.5063683
380.11  9.547818
379.91  8.8960622
379.71  8.7194073
379.51  9.2586306
379.31  9.2868862
379.11  9.1484488
378.91  9.390455
378.71  9.4520788
378.51  8.5716419
378.31  9.1234508
378.11  9.4120328
377.91  8.6068642
377.71  8.8056806
377.51  9.0222023
377.31  9.3971174
377.11  9.4193212
376.91  8.9871153
376.71  9.3152936

# Region:            Ba4d
# Spectrum ID:       6
# Acquisition Date:  06/23/22 13:04:57 UTC
# Analysis Method:   XPS
# Analyzer:          Analyzer
# Analyzer Lens:     LargeArea:1.5kV
# Analyzer Slit:     4:3x20\B:open
# Scan Mode:         FixedAnalyzerTransmission
# Curves/Scan:       1
# Values/Curve:      101
# Dwell Time:        0.5
# Excitation Energy: 1486.71
# Binding Energy:    106.71
# Pass Energy:       30
# Bias Voltage:      -1
# Detector Voltage:  1800
# Eff. Workfunction: 4.498
# Source:            XR 50 MF (UXC1000)
# Comment:
# OrdinateRange:     [-18.000000, 18.000000]
#
# Cycle: 0
# Number of Scans: 5
#
# Cycle: 0, Curve: 0
# Acquisition Date: 06/23/22 13:04:57 UTC
#
# ColumnLabels: energy counts/s
#
106.71  4.0731098
106.51  4.1121297
106.31  4.0540138
106.11  4.2257214
105.91  4.412405
105.71  4.1655859
105.51  4.2143811
105.31  4.0439673
105.11  4.0223912
104.91  4.2562205
104.71  4.4279644
104.51  4.3367848
104.31  4.4432802
104.11  4.4931233
103.91  4.2604636
103.71  4.1971851
103.51  4.164759
103.31  4.2212823
103.11  4.0789558
102.91  4.15076
102.71  3.9419939
102.51  3.9143908
102.31  4.0901074
102.11  3.9737602
101.91  3.8355111
101.71  3.973109
101.51  3.7818744
101.31  3.8535901
101.11  3.8870693
100.91  3.8846707
100.71  4.2164705
100.51  3.8778462
100.31  3.9115067
100.11  4.0232138
99.91  3.8991896
99.71  3.9188076
99.51  3.8372387
99.31  3.697413
99.11  3.9305464
98.91  3.6690781
98.71  3.884608
98.51  3.8322689
98.31  3.780855
98.11  4.0002644
97.91  3.8292185
97.71  3.8168107
97.51  3.8965563
97.31  4.0821028
97.11  3.7851172
96.91  3.8296477
96.71  3.8239229
96.51  3.9542729
96.31  4.2728449
96.11  4.2712146
95.91  4.5694501
95.71  4.6536558
95.51  4.5136354
95.31  4.7585546
95.11  4.7694732
94.91  4.751782
94.71  4.728721
94.51  4.8675377
94.31  4.9124268
94.11  4.891829
93.91  4.8335756
93.71  4.866762
93.51  5.2123798
93.31  5.171355
93.11  5.2028063
92.91  5.2393741
92.71  5.0704278
92.51  5.356561
92.31  5.1076383
92.11  5.220624
91.91  5.1938216
91.71  5.5000164
91.51  5.3453898
91.31  4.8549937
91.11  4.7412963
90.91  4.6549667
90.71  4.2904024
90.51  3.9778166
90.31  3.8654518
90.11  3.8565125
89.91  3.9034412
89.71  3.8556389
89.51  4.0057735
89.31  3.7551679
89.11  3.8744497
88.91  3.8864253
88.71  3.8765547
88.51  3.7539391
88.31  3.6226546
88.11  3.539441
87.91  3.8570638
87.71  3.6113566
87.51  3.7674896
87.31  3.5472297
87.11  3.4860052
86.91  3.5046446
86.71  3.6083372

# Region:            Na1s
# Spectrum ID:       7
# Acquisition Date:  06/23/22 12:59:35 UTC
# Analysis Method:   XPS
# Analyzer:          Analyzer
# Analyzer Lens:     LargeArea:1.5kV
# Analyzer Slit:     4:3x20\B:open
# Scan Mode:         FixedAnalyzerTransmission
# Curves/Scan:       1
# Values/Curve:      130
# Dwell Time:        0.5
# Excitation Energy: 1486.71
# Binding Energy:    1086.71
# Pass Energy:       30
# Bias Voltage:      -1
# Detector Voltage:  1800
# Eff. Workfunction: 4.498
# Source:            XR 50 MF (UXC1000)
# Comment:
# OrdinateRange:     [-18.000000, 18.000000]
#
# Cycle: 0
# Number of Scans: 4
#
# Cycle: 0, Curve: 0
# Acquisition Date: 06/23/22 12:59:35 UTC
#
# ColumnLabels: energy counts/s
#
1086.71  11.205727
1086.5107  11.649812
1086.3114  11.622991
1086.1121  11.684933
1085.9128  12.035092
1085.7135  12.08772
1085.5142  12.021322
1085.3149  11.654303
1085.1156  11.514147
1084.9163  11.770331
1084.717  11.708503
1084.5177  11.44766
1084.3184  11.564431
1084.1191  11.715942
1083.9198  11.990765
1083.7205  11.495355
1083.5212  11.572765
1083.3219  11.351712
1083.1226  11.289793
1082.9233  11.38287
1082.724  11.892695
1082.5247  11.651406
1082.3253  11.621062
1082.126  11.766214
1081.9267  11.655483
1081.7274  11.569195
1081.5281  11.825798
1081.3288  11.54425
1081.1295  11.800283
1080.9302  11.66977
1080.7309  11.719811
1080.5316  11.555354
1080.3323  12.121171
1080.133  11.524005
1079.9337  11.509019
1079.7344  11.618315
1079.5351  11.633278
1079.3358  11.638279
1079.1365  11.782399
1078.9372  11.340605
1078.7379  11.238465
1078.5386  11.118836
1078.3393  11.359673
1078.14  11.719623
1077.9407  11.479613
1077.7414  11.668145
1077.5421  11.530308
1077.3428  11.833228
1077.1435  11.560651
1076.9442  11.705484
1076.7449  11.995826
1076.5456  12.085753
1076.3463  11.810704
1076.147  11.608007
1075.9477  11.403045
1075.7484  11.206388
1075.5491  11.671804
1075.3498  11.361239
1075.1505  11.504205
1074.9512  11.755068
1074.7519  11.741688
1074.5526  11.780419
1074.3533  12.091753
1074.154  12.268959
1073.9547  11.902402
1073.7553  11.66196
1073.556  11.56849
1073.3567  11.814047
1073.1574  11.670676
1072.9581  12.058595
1072.7588  11.82845
1072.5595  11.815376
1072.3602  11.813742
1072.1609  12.165705
1071.9616  11.704626
1071.7623  11.500769
1071.563  11.040852
1071.3637  11.540935
1071.1644  11.519503
1070.9651  11.643353
1070.7658  11.484071
1070.5665  11.322616
1070.3672  11.413076
1070.1679  11.477794
1069.9686  11.644951
1069.7693  11.603855
1069.57  11.756349
1069.3707  11.822111
1069.1714  11.716741
1068.9721  11.243789
1068.7728  11.41971
1068.5735  11.502256
1068.3742  11.599368
1068.1749  11.458071
1067.9756  11.453725
1067.7763  11.610808
1067.577  11.571176
1067.3777  12.067164
1067.1784  11.739651
1066.9791  11.951344
1066.7798  12.170393
1066.5805  12.305758
1066.3812  11.90601
1066.1819  12.216684
1065.9826  12.201775
1065.7833  12.126235
1065.584  12.334117
1065.3847  12.20022
1065.1853  11.80088
1064.986  11.960981
1064.7867  12.419166
1064.5874  12.275818
1064.3881  12.631892
1064.1888  12.091721
1063.9895  12.184202
1063.7902  12.323561
1063.5909  12.508578
1063.3916  12.67389
1063.1923  12.254252
1062.993  11.632504
1062.7937  12.252879
1062.5944  12.054325
1062.3951  11.963966
1062.1958  11.793095
1061.9965  11.830545
1061.7972  11.653773
1061.5979  11.756043
1061.3986  11.502997
1061.1993  11.58495
1061  11.47461

# Region:            F1s
# Spectrum ID:       8
# Acquisition Date:  06/23/22 13:00:46 UTC
# Analysis Method:   XPS
# Analyzer:          Analyzer
# Analyzer Lens:     LargeArea:1.5kV
# Analyzer Slit:     4:3x20\B:open
# Scan Mode:         FixedAnalyzerTransmission
# Curves/Scan:       1
# Values/Curve:      115
# Dwell Time:        0.5
# Excitation Energy: 1486.71
# Binding Energy:    696.71
# Pass Energy:       30
# Bias Voltage:      -1
# Detector Voltage:  1800
# Eff. Workfunction: 4.498
# Source:            XR 50 MF (UXC1000)
# Comment:
# OrdinateRange:     [-18.000000, 18.000000]
#
# Cycle: 0
# Number of Scans: 4
#
# Cycle: 0, Curve: 0
# Acquisition Date: 06/23/22 13:00:46 UTC
#
# ColumnLabels: energy counts/s
#
696.71  10.829989
696.51079  10.62355
696.31158  10.670536
696.11237  10.921231
695.91316  10.64385
695.71395  10.672544
695.51474  10.61163
695.31553  10.376292
695.11632  10.738845
694.91711  10.595334
694.71789  10.501227
694.51868  10.66503
694.31947  10.44314
694.12026  10.609267
693.92105  10.941472
693.72184  10.735741
693.52263  10.572761
693.32342  10.607238
693.12421  10.893036
692.925  10.963997
692.72579  10.662543
692.52658  10.537558
692.32737  10.729051
692.12816  10.614015
691.92895  11.071998
691.72974  10.786343
691.53053  10.420884
691.33132  10.674668
691.13211  10.914012
690.93289  10.990328
690.73368  11.087313
690.53447  10.817056
690.33526  11.03069
690.13605  10.878059
689.93684  10.470998
689.73763  10.664458
689.53842  10.460899
689.33921  10.61062
689.14  10.770502
688.94079  10.578522
688.74158  10.909742
688.54237  10.978964
688.34316  10.574063
688.14395  10.322557
687.94474  10.842512
687.74553  10.712586
687.54632  10.786995
687.34711  10.859439
687.14789  11.297532
686.94868  10.791284
686.74947  10.824832
686.55026  11.245028
686.35105  10.999316
686.15184  10.500823
685.95263  10.662719
685.75342  11.010477
685.55421  11.12318
685.355  11.184627
685.15579  10.925932
684.95658  10.991707
684.75737  11.109236
684.55816  11.09324
684.35895  11.004542
684.15974  10.595735
683.96053  10.66765
683.76132  10.83282
683.56211  10.823903
683.36289  10.557579
683.16368  10.929007
682.96447  10.766933
682.76526  10.554845
682.56605  10.722401
682.36684  10.921847
682.16763  10.706425
681.96842  10.684994
681.76921  10.794959
681.57  11.011157
681.37079  11.191407
681.17158  10.961878
680.97237  10.843325
680.77316  10.720608
680.57395  10.876896
680.37474  10.681959
680.17553  11.006198
679.97632  10.863472
679.77711  10.676531
679.57789  10.448435
679.37868  10.732477
679.17947  11.001161
678.98026  11.230895
678.78105  11.233996
678.58184  11.046186
678.38263  11.167113
678.18342  10.942649
677.98421  10.787955
677.785  10.692016
677.58579  10.767359
677.38658  11.074192
677.18737  11.163757
676.98816  10.903598
676.78895  10.872663
676.58974  11.017524
676.39053  11.045149
676.19132  11.317067
675.99211  11.022535
675.79289  10.950506
675.59368  10.854276
675.39447  10.714853
675.19526  10.812512
674.99605  10.880132
674.79684  10.673477
674.59763  11.011888
674.39842  10.967393
674.19921  11.165178
674  11.139196

# Region:            Ba3d
# Spectrum ID:       9
# Acquisition Date:  06/23/22 13:02:19 UTC
# Analysis Method:   XPS
# Analyzer:          Analyzer
# Analyzer Lens:     LargeArea:1.5kV
# Analyzer Slit:     4:3x20\B:open
# Scan Mode:         FixedAnalyzerTransmission
# Curves/Scan:       1
# Values/Curve:      156
# Dwell Time:        0.5
# Excitation Energy: 1486.71
# Binding Energy:    801
# Pass Energy:       30
# Bias Voltage:      -1
# Detector Voltage:  1800
# Eff. Workfunction: 4.498
# Source:            XR 50 MF (UXC1000)
# Comment:
# OrdinateRange:     [-18.000000, 18.000000]
#
# Cycle: 0
# Number of Scans: 4
#
# Cycle: 0, Curve: 0
# Acquisition Date: 06/23/22 13:02:19 UTC
#
# ColumnLabels: energy counts/s
#
801  10.378456
800.8  10.264156
800.6  10.2358
800.4  10.762768
800.2  10.804778
800  10.741348
799.8  11.419171
799.6  11.995166
799.4  11.69137
799.2  11.955547
799  13.119258
798.8  13.825258
798.6  14.637218
798.4  14.596495
798.2  14.689256
798  14.903156
797.8  15.307234
797.6  15.953705
797.4  15.888931
797.2  15.390505
797  15.145704
796.8  14.366207
796.6  13.826241
796.4  13.009714
796.2  12.14627
796  11.303734
795.8  10.935178
795.6  10.612482
795.4  10.320765
795.2  10.286763
795  10.393939
794.8  10.270941
794.6  10.308985
794.4  10.003356
794.2  10.138624
794  10.248239
793.8  10.156043
793.6  10.211348
793.4  9.8576346
793.2  9.7180849
793  9.9021965
792.8  9.9499868
792.6  10.21428
792.4  9.8170636
792.2  10.025232
792  9.825766
791.8  9.9997464
791.6  9.9413364
791.4  9.5623105
791.2  9.5251995
791  9.4951463
790.8  9.6966469
790.6  9.6372781
790.4  9.8628387
790.2  9.6909378
790  9.5615312
789.8  9.4190698
789.6  9.8127707
789.4  9.5750922
789.2  9.433394
789  9.5977849
788.8  9.686854
788.6  9.7659188
788.4  9.6215423
788.2  9.464371
788  9.1336033
787.8  9.2206234
787.6  9.3441398
787.4  9.4472257
787.2  9.6451821
787  9.1669003
786.8  9.3427745
786.6  9.2132725
786.4  9.5014385
786.2  9.3977303
786  9.655906
785.8  9.6635587
785.6  9.7582896
785.4  9.7441027
785.2  9.7909831
785  10.354262
784.8  10.602243
784.6  10.718149
784.4  10.803669
784.2  11.436504
784  12.41307
783.8  12.996545
783.6  13.963422
783.4  14.718354
783.2  15.71252
783  15.994576
782.8  17.22422
782.6  17.275587
782.4  17.258371
782.2  17.979816
782  18.06824
781.8  17.605186
781.6  16.925776
781.4  15.316581
781.2  14.578466
781  13.360536
780.8  12.066644
780.6  11.363319
780.4  10.697866
780.2  9.9150424
780  9.8165334
779.8  9.8170828
779.6  9.6207514
779.4  9.709184
779.2  9.3600309
779  9.609054
778.8  9.3791611
778.6  9.209382
778.4  9.4699842
778.2  9.5713896
778  9.1674309
777.8  9.3977703
777.6  9.5791988
777.4  9.4904926
777.2  9.6974366
777  9.4378902
776.8  9.2837359
776.6  9.2236887
776.4  9.4823005
776.2  9.4584158
776  9.4822572
775.8  9.4758081
775.6  9.3546462
775.4  9.1652809
775.2  9.3797153
775  9.2686776
774.8  9.3957709
774.6  9.5606376
774.4  9.6865991
774.2  9.4832196
774  9.6533641
773.8  9.4045266
773.6  9.3709654
773.4  9.39943
773.2  9.2352134
773  9.5198108
772.8  9.2863439
772.6  9.2996321
772.4  9.0671796
772.2  9.5904845
772  9.6036137
771.8  9.0578206
771.6  9.2534439
771.4  9.3471144
771.2  9.1999867
771  9.5337729
770.8  9.7002229
770.6  9.4168512
770.4  9.378881
770.2  9.465418
770  9.3772386

# Region:            O1s_(2)
# Spectrum ID:       10
# Acquisition Date:  06/23/22 13:05:43 UTC
# Analysis Method:   XPS
# Analyzer:          Analyzer
# Analyzer Lens:     LargeArea:1.5kV
# Analyzer Slit:     4:3x20\B:open
# Scan Mode:         FixedAnalyzerTransmission
# Curves/Scan:       1
# Values/Curve:      65
# Dwell Time:        0.5
# Excitation Energy: 1486.71
# Binding Energy:    541.71
# Pass Energy:       30
# Bias Voltage:      -1
# Detector Voltage:  1800
# Eff. Workfunction: 4.498
# Source:            XR 50 MF (UXC1000)
# Comment:
# OrdinateRange:     [-18.000000, 18.000000]
#
# Cycle: 0
# Number of Scans: 5
#
# Cycle: 0, Curve: 0
# Acquisition Date: 06/23/22 13:05:43 UTC
#
# ColumnLabels: energy counts/s
#
541.71  10.344174
541.51  10.703442
541.31  10.6491
541.11  10.537464
540.91  10.602675
540.71  10.221
540.51  10.215617
540.31  10.258001
540.11  10.507336
539.91  10.338546
539.71  10.071466
539.51  10.306634
539.31  10.206655
539.11  10.099306
538.91  10.25041
538.71  10.277787
538.51  10.339771
538.31  10.288538
538.11  10.410738
537.91  10.165067
537.71  10.211036
537.51  10.448248
537.31  10.609057
537.11  10.299246
536.91  10.130213
536.71  10.662073
536.51  10.895145
536.31  11.107424
536.11  11.151054
535.91  11.786569
535.71  12.910862
535.51  13.580097
535.31  13.900641
535.11  15.051309
534.91  16.677597
534.71  17.941781
534.51  19.260062
534.31  20.733338
534.11  21.773792
533.91  22.050741
533.71  21.937399
533.51  20.989304
533.31  20.67476
533.11  19.777083
532.91  19.641761
532.71  20.247242
532.51  20.411791
532.31  21.780164
532.11  23.606805
531.91  25.160792
531.71  24.382774
531.51  22.366043
531.31  19.517155
531.11  16.463211
530.91  14.100344
530.71  12.182706
530.51  11.414415
530.31  10.451207
530.11  10.140098
529.91  10.238523
529.71  9.9271367
529.51  9.913181
529.31  9.9572188
529.11  9.5792353
528.91  9.5892782

# Region:            N1s_(2)
# Spectrum ID:       11
# Acquisition Date:  06/23/22 12:41:03 UTC
# Analysis Method:   XPS
# Analyzer:          Analyzer
# Analyzer Lens:     LargeArea:1.5kV
# Analyzer Slit:     4:3x20\B:open
# Scan Mode:         FixedAnalyzerTransmission
# Curves/Scan:       1
# Values/Curve:      58
# Dwell Time:        0.5
# Excitation Energy: 1486.71
# Binding Energy:    409
# Pass Energy:       30
# Bias Voltage:      -1
# Detector Voltage:  1800
# Eff. Workfunction: 4.498
# Source:            XR 50 MF (UXC1000)
# Comment:
# OrdinateRange:     [-18.000000, 18.000000]
#
# Cycle: 0
# Number of Scans: 1
#
# Cycle: 0, Curve: 0
# Acquisition Date: 06/23/22 12:41:03 UTC
#
# ColumnLabels: energy counts/s
#
409  9.6483656
408.80702  9.8136423
408.61404  10.703215
408.42105  9.8539904
408.22807  10.016284
408.03509  9.8281509
407.84211  10.02669
407.64912  10.677318
407.45614  10.957262
407.26316  10.203266
407.07018  10.693146
406.87719  10.151643
406.68421  11.214728
406.49123  10.635409
406.29825  10.984866
406.10526  10.162662
405.91228  10.38725
405.7193  10.862829
405.52632  11.204473
405.33333  11.531248
405.14035  10.852794
404.94737  10.422985
404.75439  10.00923
404.5614  10.73438
404.36842  10.408921
404.17544  10.121004
403.98246  9.7802756
403.78947  9.7096728
403.59649  10.245527
403.40351  10.69838
403.21053  9.8834105
403.01754  10.380652
402.82456  10.828472
402.63158  10.336918
402.4386  9.610142
402.24561  10.283856
402.05263  10.039834
401.85965  10.30642
401.66667  10.306945
401.47368  9.7368097
401.2807  9.5871632
401.08772  9.7922049
400.89474  9.8154051
400.70175  10.239837
400.50877  9.6124791
400.31579  9.0008373
400.12281  9.3082074
399.92982  9.363627
399.73684  9.8014844
399.54386  9.8184063
399.35088  9.5011127
399.15789  9.4676805
398.96491  9.446057
398.77193  9.7532858
398.57895  9.8417626
398.38596  9.6231745
398.19298  9.7280605
398  9.2715703

# Region:            N1s_(3)
# Spectrum ID:       12
# Acquisition Date:  06/23/22 13:27:10 UTC
# Analysis Method:   XPS
# Analyzer:          Analyzer
# Analyzer Lens:     LargeArea:1.5kV
# Analyzer Slit:     4:3x20\B:open
# Scan Mode:         FixedAnalyzerTransmission
# Curves/Scan:       1
# Values/Curve:      74
# Dwell Time:        0.5
# Excitation Energy: 1486.71
# Binding Energy:    412
# Pass Energy:       30
# Bias Voltage:      -1
# Detector Voltage:  1800
# Eff. Workfunction: 4.498
# Source:            XR 50 MF (UXC1000)
# Comment:
# OrdinateRange:     [-18.000000, 18.000000]
#
# Cycle: 0
# Number of Scans: 19
#
# Cycle: 0, Curve: 0
# Acquisition Date: 06/23/22 13:27:10 UTC
#
# ColumnLabels: energy counts/s
#
412  9.599914
411.80822  9.5562941
411.61644  9.4522389
411.42466  9.4708082
411.23288  9.6852808
411.0411  9.6885334
410.84932  9.539766
410.65753  9.6454396
410.46575  9.6570533
410.27397  9.7556374
410.08219  9.7725237
409.89041  9.8303212
409.69863  9.919701
409.50685  9.7808061
409.31507  9.8963248
409.12329  10.043455
408.93151  10.148504
408.73973  10.33216
408.54795  10.296569
408.35616  10.334876
408.16438  10.306689
407.9726  10.403349
407.78082  10.352962
407.58904  10.430246
407.39726  10.685641
407.20548  10.641889
407.0137  10.891976
406.82192  11.088916
406.63014  10.851599
406.43836  10.797073
406.24658  10.90567
406.05479  11.085936
405.86301  11.033735
405.67123  10.94865
405.47945  10.931381
405.28767  11.111351
405.09589  11.072978
404.90411  10.85281
404.71233  10.956895
404.52055  10.819878
404.32877  10.661304
404.13699  10.72336
403.94521  10.526141
403.75342  10.327993
403.56164  10.275901
403.36986  10.152623
403.17808  10.211919
402.9863  10.266581
402.79452  10.079537
402.60274  10.070998
402.41096  10.021708
402.21918  10.082266
402.0274  10.117337
401.83562  10.018574
401.64384  9.9207635
401.45205  9.8734351
401.26027  9.8205753
401.06849  9.7992597
400.87671  9.8765756
400.68493  9.753019
400.49315  9.5160205
400.30137  9.6621015
400.10959  9.6272833
399.91781  9.640981
399.72603  9.5295234
399.53425  9.6814512
399.34247  9.359909
399.15068  9.4468845
398.9589  9.4325786
398.76712  9.3844992
398.57534  9.416458
398.38356  9.3436316
398.19178  9.3249127
398  9.2409587

# Region:            Si2s
# Spectrum ID:       13
# Acquisition Date:  06/23/22 13:18:19 UTC
# Analysis Method:   XPS
# Analyzer:          Analyzer
# Analyzer Lens:     LargeArea:1.5kV
# Analyzer Slit:     4:3x20\B:open
# Scan Mode:         FixedAnalyzerTransmission
# Curves/Scan:       1
# Values/Curve:      64
# Dwell Time:        0.5
# Excitation Energy: 1486.71
# Binding Energy:    157
# Pass Energy:       30
# Bias Voltage:      -1
# Detector Voltage:  1800
# Eff. Workfunction: 4.498
# Source:            XR 50 MF (UXC1000)
# Comment:
# OrdinateRange:     [-18.000000, 18.000000]
#
# Cycle: 0
# Number of Scans: 6
#
# Cycle: 0, Curve: 0
# Acquisition Date: 06/23/22 13:18:19 UTC
#
# ColumnLabels: energy counts/s
#
157  4.2035955
156.80952  4.3572481
156.61905  4.2097372
156.42857  4.1553059
156.2381  4.3396486
156.04762  4.2234865
155.85714  4.235627
155.66667  4.4294859
155.47619  4.4200695
155.28571  4.313854
155.09524  4.3104595
154.90476  4.4272308
154.71429  4.4943301
154.52381  4.260677
154.33333  4.4359659
154.14286  4.4045023
153.95238  4.1282464
153.7619  4.0519521
153.57143  4.0839384
153.38095  4.0600799
153.19048  4.15644
153  4.1597247
152.80952  4.1624647
152.61905  4.0828697
152.42857  4.0248666
152.2381  4.0460164
152.04762  3.9885483
151.85714  3.9506844
151.66667  3.9280447
151.47619  4.1804359
151.28571  4.2008529
151.09524  4.1305724
150.90476  4.0446857
150.71429  4.0473226
150.52381  4.1827497
150.33333  4.2387624
150.14286  4.004715
149.95238  4.0662527
149.7619  4.096714
149.57143  4.1910423
149.38095  4.1100862
149.19048  4.1977539
149  4.1172217
148.80952  3.9812529
148.61905  4.0595769
148.42857  4.0152359
148.2381  4.1195878
148.04762  4.1096998
147.85714  3.9052776
147.66667  4.0398702
147.47619  4.1345076
147.28571  4.1872078
147.09524  4.1378146
146.90476  4.248446
146.71429  3.9978219
146.52381  4.1522645
146.33333  4.0923746
146.14286  4.2465239
145.95238  4.1902918
145.7619  4.0931258
145.57143  4.1048076
145.38095  4.0608358
145.19048  4.0483567
145  4.1671312

# Region:            Si2p
# Spectrum ID:       14
# Acquisition Date:  06/23/22 13:18:56 UTC
# Analysis Method:   XPS
# Analyzer:          Analyzer
# Analyzer Lens:     LargeArea:1.5kV
# Analyzer Slit:     4:3x20\B:open
# Scan Mode:         FixedAnalyzerTransmission
# Curves/Scan:       1
# Values/Curve:      52
# Dwell Time:        0.5
# Excitation Energy: 1486.71
# Binding Energy:    110
# Pass Energy:       30
# Bias Voltage:      -1
# Detector Voltage:  1800
# Eff. Workfunction: 4.498
# Source:            XR 50 MF (UXC1000)
# Comment:
# OrdinateRange:     [-18.000000, 18.000000]
#
# Cycle: 0
# Number of Scans: 6
#
# Cycle: 0, Curve: 0
# Acquisition Date: 06/23/22 13:18:56 UTC
#
# ColumnLabels: energy counts/s
#
110  3.9597423
109.80392  3.9793422
109.60784  3.9824123
109.41176  4.1201758
109.21569  4.2540145
109.01961  4.318698
108.82353  4.1795921
108.62745  4.3026944
108.43137  4.0678288
108.23529  4.0129476
108.03922  4.1970043
107.84314  4.1255193
107.64706  4.096177
107.45098  4.1648376
107.2549  4.2156612
107.05882  4.2487516
106.86275  4.09985
106.66667  4.108011
106.47059  4.0676801
106.27451  4.1744943
106.07843  4.275455
105.88235  4.1419601
105.68627  4.1380137
105.4902  4.0934097
105.29412  4.1862469
105.09804  4.2786525
104.90196  4.4456376
104.70588  4.5094226
104.5098  4.5555922
104.31373  4.3345917
104.11765  4.3906898
103.92157  4.5264263
103.72549  4.5325965
103.52941  4.421374
103.33333  4.2352932
103.13725  4.3825898
102.94118  4.2733934
102.7451  4.054448
102.54902  4.2461807
102.35294  4.0000756
102.15686  4.0464577
101.96078  3.844477
101.76471  3.9511587
101.56863  3.9878158
101.37255  3.837208
101.17647  3.8617901
100.98039  3.7891858
100.78431  3.7694782
100.58824  3.9283231
100.39216  3.789495
100.19608  3.9760783
100  4.0154024
