# Created by:        SpecsLab Prodigy, Version 4.60.2-r85849 
#
# XY-Serializer Export Settings:
#   Comment Prefix:           #
#   Output meta data:         yes
#   Energy Axis:              Binding Energy
#   Count Rate:               Counts per Second
#   Separate Scan Data:       no
#   Separate Channel Data:    no
#   External Channel Data:    yes
#   Transmission Function:    no
#   ErrorBar:                 no
#   Operation Results:        yes
#   Time Zone Format:         UTC
#
# Group:             Spectrum Group
#
# Region:            Ba3d(2)
# Acquisition Date:  01/13/22 09:18:44 UTC
# Analysis Method:   XPS
# Analyzer:          Phoibos 100 R6
# Analyzer Lens:     LargeArea:1.5kV
# Analyzer Slit:     1:0.2x20\B:open
# Scan Mode:         FixedAnalyzerTransmission
# Curves/Scan:       1
# Values/Curve:      111
# Dwell Time:        0.8
# Excitation Energy: 1486.61
# Binding Energy:    786
# Pass Energy:       30
# Bias Voltage:      90
# Detector Voltage:  2600
# Eff. Workfunction: 4.309
# Source:            X-Ray Dummy
# Comment:           
#
# Cycle: 0
# Number of Scans: 1
#
# Cycle: 0, Curve: 0
# Acquisition Date: 01/13/22 09:18:44 UTC
#
# ColumnLabels: energy counts/s
#
786  3158.75
785.9  3381.25
785.8  3363.75
785.7  3521.25
785.6  3585
785.5  3860
785.4  4037.5
785.3  4207.5
785.2  4385
785.1  4716.25
785  4897.5
784.9  5158.75
784.8  5698.75
784.7  6040
784.6  6315
784.5  6698.75
784.4  6977.5
784.3  7615
784.2  7777.5
784.1  8208.75
784  8565
783.9  8838.75
783.8  9020
783.7  9185
783.6  9335
783.5  9163.75
783.4  9296.25
783.3  8877.5
783.2  8642.5
783.1  8472.5
783  8017.5
782.9  7568.75
782.8  7302.5
782.7  6790
782.6  6498.75
782.5  5962.5
782.4  5587.5
782.3  5183.75
782.2  4988.75
782.1  4658.75
782  4267.5
781.9  4248.75
781.8  3945
781.7  3641.25
781.6  3553.75
781.5  3403.75
781.4  3263.75
781.3  3201.25
781.2  3053.75
781.1  3033.75
781  2897.5
780.9  2932.5
780.8  2886.25
780.7  2880
780.6  2820
780.5  2766.25
780.4  2798.75
780.3  2672.5
780.2  2565
780.1  2566.25
780  2576.25
779.9  2431.25
779.8  2536.25
779.7  2496.25
779.6  2522.5
779.5  2567.5
779.4  2497.5
779.3  2458.75
779.2  2546.25
779.1  2533.75
779  2337.5
778.9  2488.75
778.8  2390
778.7  2476.25
778.6  2248.75
778.5  2327.5
778.4  2370
778.3  2435
778.2  2253.75
778.1  2318.75
778  2331.25
777.9  2286.25
777.8  2298.75
777.7  2381.25
777.6  2295
777.5  2320
777.4  2266.25
777.3  2432.5
777.2  2315
777.1  2356.25
777  2410
776.9  2286.25
776.8  2316.25
776.7  2286.25
776.6  2326.25
776.5  2320
776.4  2311.25
776.3  2276.25
776.2  2361.25
776.1  2232.5
776  2312.5
775.9  2481.25
775.8  2356.25
775.7  2373.75
775.6  2371.25
775.5  2347.5
775.4  2393.75
775.3  2347.5
775.2  2507.5
775.1  2420
775  2460

# Region:            Ba3d
# Acquisition Date:  01/13/22 09:29:24 UTC
# Analysis Method:   XPS
# Analyzer:          Phoibos 100 R6
# Analyzer Lens:     LargeArea:1.5kV
# Analyzer Slit:     1:0.2x20\B:open
# Scan Mode:         FixedAnalyzerTransmission
# Curves/Scan:       1
# Values/Curve:      121
# Dwell Time:        0.8
# Excitation Energy: 1486.61
# Binding Energy:    789
# Pass Energy:       30
# Bias Voltage:      90
# Detector Voltage:  2600
# Eff. Workfunction: 4.309
# Source:            X-Ray Dummy
# Comment:           
#
# Cycle: 0
# Number of Scans: 1
#
# Cycle: 0, Curve: 0
# Acquisition Date: 01/13/22 09:29:24 UTC
#
# ColumnLabels: energy counts/s
#
789  2857.5
788.9  2912.5
788.8  2903.75
788.7  2815
788.6  2913.75
788.5  2912.5
788.4  3030
788.3  2906.25
788.2  2846.25
788.1  2901.25
788  2788.75
787.9  2848.75
787.8  2865
787.7  2866.25
787.6  3028.75
787.5  2970
787.4  3017.5
787.3  2911.25
787.2  2976.25
787.1  2800
787  2916.25
786.9  2932.5
786.8  2926.25
786.7  3065
786.6  3085
786.5  3062.5
786.4  3025
786.3  3202.5
786.2  3140
786.1  3161.25
786  3242.5
785.9  3346.25
785.8  3441.25
785.7  3540
785.6  3681.25
785.5  3885
785.4  3902.5
785.3  4132.5
785.2  4330
785.1  4826.25
785  4830
784.9  5140
784.8  5568.75
784.7  5907.5
784.6  6470
784.5  6616.25
784.4  7011.25
784.3  7305
784.2  7815
784.1  8051.25
784  8340
783.9  8683.75
783.8  9096.25
783.7  9285
783.6  9188.75
783.5  9215
783.4  9147.5
783.3  8908.75
783.2  8752.5
783.1  8265
783  7831.25
782.9  7780
782.8  7356.25
782.7  7050
782.6  6465
782.5  5988.75
782.4  5692.5
782.3  5336.25
782.2  4828.75
782.1  4608.75
782  4368.75
781.9  4161.25
781.8  3816.25
781.7  3778.75
781.6  3538.75
781.5  3492.5
781.4  3363.75
781.3  3218.75
781.2  3110
781.1  3053.75
781  2998.75
780.9  2911.25
780.8  2842.5
780.7  2818.75
780.6  2686.25
780.5  2638.75
780.4  2661.25
780.3  2690
780.2  2647.5
780.1  2611.25
780  2528.75
779.9  2581.25
779.8  2508.75
779.7  2457.5
779.6  2450
779.5  2493.75
779.4  2307.5
779.3  2458.75
779.2  2435
779.1  2461.25
779  2440
778.9  2433.75
778.8  2333.75
778.7  2378.75
778.6  2243.75
778.5  2405
778.4  2365
778.3  2425
778.2  2317.5
778.1  2428.75
778  2337.5
777.9  2398.75
777.8  2388.75
777.7  2321.25
777.6  2360
777.5  2393.75
777.4  2315
777.3  2326.25
777.2  2437.5
777.1  2340
777  2275

# Region:            C1s
# Acquisition Date:  01/13/22 09:31:10 UTC
# Analysis Method:   XPS
# Analyzer:          Phoibos 100 R6
# Analyzer Lens:     LargeArea:1.5kV
# Analyzer Slit:     1:0.2x20\B:open
# Scan Mode:         FixedAnalyzerTransmission
# Curves/Scan:       1
# Values/Curve:      131
# Dwell Time:        0.8
# Excitation Energy: 1486.61
# Binding Energy:    295
# Pass Energy:       30
# Bias Voltage:      90
# Detector Voltage:  2600
# Eff. Workfunction: 4.309
# Source:            X-Ray Dummy
# Comment:           
#
# Cycle: 0
# Number of Scans: 2
#
# Cycle: 0, Curve: 0
# Acquisition Date: 01/13/22 09:31:10 UTC
#
# ColumnLabels: energy counts/s
#
295  835.625
294.9  841.25
294.8  841.875
294.7  843.75
294.6  820.625
294.5  856.875
294.4  845.625
294.3  861.875
294.2  838.75
294.1  833.125
294  842.5
293.9  840.625
293.8  836.875
293.7  812.5
293.6  811.25
293.5  848.125
293.4  828.75
293.3  838.75
293.2  875
293.1  862.5
293  808.75
292.9  881.25
292.8  868.75
292.7  889.375
292.6  851.875
292.5  879.375
292.4  901.25
292.3  835
292.2  823.75
292.1  891.25
292  852.5
291.9  935.625
291.8  904.375
291.7  889.375
291.6  906.875
291.5  894.375
291.4  906.875
291.3  935.625
291.2  943.75
291.1  968.75
291  1003.125
290.9  961.875
290.8  1018.125
290.7  1020
290.6  1057.5
290.5  1076.25
290.4  1078.75
290.3  1167.5
290.2  1155.625
290.1  1197.5
290  1245
289.9  1248.125
289.8  1303.125
289.7  1284.375
289.6  1291.25
289.5  1335
289.4  1347.5
289.3  1408.75
289.2  1410.625
289.1  1413.75
289  1436.25
288.9  1463.125
288.8  1497.5
288.7  1463.75
288.6  1520
288.5  1490.625
288.4  1527.5
288.3  1525
288.2  1481.875
288.1  1550.625
288  1496.875
287.9  1481.875
287.8  1452.5
287.7  1488.125
287.6  1509.375
287.5  1398.75
287.4  1371.25
287.3  1388.125
287.2  1245.625
287.1  1265.625
287  1281.875
286.9  1140
286.8  1142.5
286.7  1101.875
286.6  1050
286.5  1009.375
286.4  990.625
286.3  956.875
286.2  1013.125
286.1  875
286  920
285.9  888.75
285.8  899.375
285.7  921.25
285.6  878.75
285.5  807.5
285.4  801.875
285.3  792.5
285.2  828.125
285.1  765
285  789.375
284.9  780
284.8  793.75
284.7  786.25
284.6  745
284.5  764.375
284.4  771.25
284.3  758.75
284.2  778.125
284.1  815
284  801.25
283.9  811.25
283.8  762.5
283.7  770.625
283.6  772.5
283.5  793.125
283.4  799.375
283.3  747.5
283.2  761.875
283.1  743.125
283  760.625
282.9  794.375
282.8  772.5
282.7  728.75
282.6  770.625
282.5  761.875
282.4  778.75
282.3  796.875
282.2  823.125
282.1  733.125
282  739.375

# Region:            N1s
# Acquisition Date:  01/13/22 09:47:25 UTC
# Analysis Method:   XPS
# Analyzer:          Phoibos 100 R6
# Analyzer Lens:     LargeArea:1.5kV
# Analyzer Slit:     1:0.2x20\B:open
# Scan Mode:         FixedAnalyzerTransmission
# Curves/Scan:       1
# Values/Curve:      131
# Dwell Time:        0.8
# Excitation Energy: 1486.61
# Binding Energy:    408
# Pass Energy:       30
# Bias Voltage:      90
# Detector Voltage:  2600
# Eff. Workfunction: 4.309
# Source:            X-Ray Dummy
# Comment:           
#
# Cycle: 0
# Number of Scans: 6
#
# Cycle: 0, Curve: 0
# Acquisition Date: 01/13/22 09:47:25 UTC
#
# ColumnLabels: energy counts/s
#
408  798.75
407.9  767.91667
407.8  793.54167
407.7  771.875
407.6  748.95833
407.5  776.25
407.4  765.41667
407.3  761.875
407.2  770.41667
407.1  759.58333
407  755
406.9  762.91667
406.8  762.91667
406.7  780.625
406.6  763.125
406.5  767.5
406.4  779.16667
406.3  753.125
406.2  758.95833
406.1  768.75
406  759.79167
405.9  769.375
405.8  770.625
405.7  754.79167
405.6  773.125
405.5  788.95833
405.4  753.125
405.3  743.54167
405.2  769.58333
405.1  776.04167
405  785.83333
404.9  777.08333
404.8  773.54167
404.7  775.20833
404.6  798.33333
404.5  794.375
404.4  807.70833
404.3  817.91667
404.2  802.5
404.1  824.79167
404  838.75
403.9  855
403.8  847.70833
403.7  856.45833
403.6  851.45833
403.5  840
403.4  881.45833
403.3  856.66667
403.2  891.45833
403.1  872.91667
403  869.79167
402.9  877.29167
402.8  874.58333
402.7  898.75
402.6  870
402.5  880.20833
402.4  895.83333
402.3  878.125
402.2  913.125
402.1  881.66667
402  895.625
401.9  856.25
401.8  869.58333
401.7  862.08333
401.6  851.25
401.5  875.625
401.4  869.79167
401.3  848.95833
401.2  829.58333
401.1  830.20833
401  793.33333
400.9  819.375
400.8  802.70833
400.7  803.125
400.6  794.375
400.5  796.66667
400.4  780.20833
400.3  777.5
400.2  793.75
400.1  760.83333
400  748.95833
399.9  763.75
399.8  767.29167
399.7  770.41667
399.6  800
399.5  766.25
399.4  764.58333
399.3  753.95833
399.2  768.95833
399.1  759.375
399  783.125
398.9  761.04167
398.8  733.33333
398.7  732.70833
398.6  755.625
398.5  778.33333
398.4  768.33333
398.3  775.20833
398.2  765
398.1  764.16667
398  765.41667
397.9  765.83333
397.8  763.125
397.7  739.375
397.6  741.875
397.5  778.54167
397.4  758.54167
397.3  762.70833
397.2  755.83333
397.1  753.125
397  775.41667
396.9  752.91667
396.8  752.70833
396.7  756.875
396.6  746.04167
396.5  745.41667
396.4  752.29167
396.3  763.54167
396.2  768.54167
396.1  763.33333
396  745.20833
395.9  760.20833
395.8  745.20833
395.7  741.875
395.6  773.33333
395.5  774.58333
395.4  734.79167
395.3  738.75
395.2  752.5
395.1  768.75
395  766.875

# Region:            Si2p
# Acquisition Date:  01/13/22 09:42:07 UTC
# Analysis Method:   XPS
# Analyzer:          Phoibos 100 R6
# Analyzer Lens:     LargeArea:1.5kV
# Analyzer Slit:     1:0.2x20\B:open
# Scan Mode:         FixedAnalyzerTransmission
# Curves/Scan:       1
# Values/Curve:      141
# Dwell Time:        0.8
# Excitation Energy: 1486.61
# Binding Energy:    112
# Pass Energy:       30
# Bias Voltage:      90
# Detector Voltage:  2600
# Eff. Workfunction: 4.309
# Source:            X-Ray Dummy
# Comment:           
#
# Cycle: 0
# Number of Scans: 3
#
# Cycle: 0, Curve: 0
# Acquisition Date: 01/13/22 09:42:07 UTC
#
# ColumnLabels: energy counts/s
#
112  454.58333
111.9  444.58333
111.8  460.41667
111.7  445.41667
111.6  464.16667
111.5  461.25
111.4  466.25
111.3  467.91667
111.2  472.08333
111.1  468.33333
111  460
110.9  475.41667
110.8  453.75
110.7  469.16667
110.6  486.66667
110.5  487.5
110.4  450.83333
110.3  486.66667
110.2  478.75
110.1  485
110  473.33333
109.9  474.58333
109.8  469.58333
109.7  482.5
109.6  472.91667
109.5  487.08333
109.4  505
109.3  486.66667
109.2  477.5
109.1  485.41667
109  487.91667
108.9  478.75
108.8  500
108.7  515.41667
108.6  545.41667
108.5  558.75
108.4  582.5
108.3  545.83333
108.2  608.33333
108.1  601.25
108  661.25
107.9  666.66667
107.8  745.41667
107.7  793.33333
107.6  817.91667
107.5  870.83333
107.4  917.5
107.3  960.41667
107.2  985.83333
107.1  1045.8333
107  1145.4167
106.9  1145
106.8  1203.3333
106.7  1237.9167
106.6  1264.1667
106.5  1250
106.4  1264.1667
106.3  1320
106.2  1281.25
106.1  1232.0833
106  1267.0833
105.9  1226.6667
105.8  1140
105.7  1163.3333
105.6  1063.3333
105.5  1013.75
105.4  957.08333
105.3  975.41667
105.2  866.25
105.1  842.5
105  787.08333
104.9  726.66667
104.8  714.58333
104.7  717.5
104.6  628.75
104.5  642.5
104.4  614.16667
104.3  555
104.2  575.41667
104.1  515
104  526.25
103.9  500
103.8  504.58333
103.7  476.66667
103.6  492.91667
103.5  481.66667
103.4  481.25
103.3  459.16667
103.2  447.5
103.1  462.08333
103  451.66667
102.9  452.5
102.8  477.91667
102.7  451.25
102.6  433.33333
102.5  420
102.4  445.83333
102.3  439.58333
102.2  437.08333
102.1  427.5
102  452.5
101.9  451.25
101.8  429.16667
101.7  407.08333
101.6  411.25
101.5  413.33333
101.4  436.66667
101.3  445
101.2  403.75
101.1  429.16667
101  442.08333
100.9  398.33333
100.8  446.25
100.7  430.83333
100.6  425.83333
100.5  391.25
100.4  404.16667
100.3  410.41667
100.2  405
100.1  406.25
100  415
99.9  409.16667
99.8  407.08333
99.7  417.91667
99.6  402.91667
99.5  430.41667
99.4  414.16667
99.3  386.25
99.2  407.08333
99.1  414.58333
99  407.91667
98.9  403.33333
98.8  392.08333
98.7  406.66667
98.6  426.66667
98.5  423.33333
98.4  430
98.3  425.83333
98.2  432.5
98.1  418.75
98  442.91667

# Region:            O1s
# Acquisition Date:  01/13/22 09:37:11 UTC
# Analysis Method:   XPS
# Analyzer:          Phoibos 100 R6
# Analyzer Lens:     LargeArea:1.5kV
# Analyzer Slit:     1:0.2x20\B:open
# Scan Mode:         FixedAnalyzerTransmission
# Curves/Scan:       1
# Values/Curve:      171
# Dwell Time:        0.8
# Excitation Energy: 1486.61
# Binding Energy:    545
# Pass Energy:       30
# Bias Voltage:      90
# Detector Voltage:  2600
# Eff. Workfunction: 4.309
# Source:            X-Ray Dummy
# Comment:           
#
# Cycle: 0
# Number of Scans: 2
#
# Cycle: 0, Curve: 0
# Acquisition Date: 01/13/22 09:37:11 UTC
#
# ColumnLabels: energy counts/s
#
545  1270
544.9  1177.5
544.8  1197.5
544.7  1193.75
544.6  1158.125
544.5  1186.875
544.4  1205.625
544.3  1123.125
544.2  1148.125
544.1  1113.125
544  1128.125
543.9  1088.125
543.8  1090
543.7  1101.25
543.6  1114.375
543.5  1166.25
543.4  1121.25
543.3  1111.25
543.2  1112.5
543.1  1120
543  1136.875
542.9  1109.375
542.8  1147.5
542.7  1089.375
542.6  1121.25
542.5  1086.875
542.4  1081.25
542.3  1089.375
542.2  1104.375
542.1  1103.125
542  1092.5
541.9  1121.25
541.8  1123.125
541.7  1119.375
541.6  1086.875
541.5  1095
541.4  1095.625
541.3  1105
541.2  1086.25
541.1  1085.625
541  1092.5
540.9  1155.625
540.8  1106.875
540.7  1118.125
540.6  1105
540.5  1109.375
540.4  1096.25
540.3  1151.25
540.2  1091.25
540.1  1125
540  1150.625
539.9  1145
539.8  1145.625
539.7  1141.25
539.6  1193.125
539.5  1148.125
539.4  1166.25
539.3  1211.25
539.2  1214.375
539.1  1207.5
539  1253.125
538.9  1206.875
538.8  1283.75
538.7  1245.625
538.6  1291.875
538.5  1293.75
538.4  1314.375
538.3  1373.75
538.2  1446.875
538.1  1482.5
538  1562.5
537.9  1588.125
537.8  1693.75
537.7  1782.5
537.6  1938.125
537.5  2080.625
537.4  2262.5
537.3  2440
537.2  2675
537.1  2875.625
537  3115.625
536.9  3315.625
536.8  3663.75
536.7  4000.625
536.6  4329.375
536.5  4600.625
536.4  4873.125
536.3  5181.25
536.2  5415
536.1  5718.75
536  5994.375
535.9  6054.375
535.8  6091.875
535.7  6160
535.6  6109.375
535.5  6121.25
535.4  5881.875
535.3  5740.625
535.2  5372.5
535.1  5215
535  4879.375
534.9  4695.625
534.8  4190.625
534.7  3826.875
534.6  3555.625
534.5  3255.625
534.4  3015
534.3  2700
534.2  2406.875
534.1  2162.5
534  2068.75
533.9  1850.625
533.8  1837.5
533.7  1648.125
533.6  1570
533.5  1486.25
533.4  1434.375
533.3  1345.625
533.2  1291.875
533.1  1243.125
533  1214.375
532.9  1163.125
532.8  1188.125
532.7  1141.875
532.6  1081.25
532.5  1088.125
532.4  1096.25
532.3  1078.125
532.2  1060.625
532.1  1055.625
532  1046.25
531.9  1033.75
531.8  1011.875
531.7  1021.875
531.6  996.25
531.5  984.375
531.4  976.25
531.3  973.75
531.2  961.25
531.1  1020.625
531  1011.25
530.9  1005
530.8  955
530.7  1015
530.6  996.875
530.5  976.25
530.4  1003.125
530.3  905
530.2  1009.375
530.1  950
530  978.125
529.9  995.625
529.8  999.375
529.7  960.625
529.6  986.875
529.5  983.125
529.4  950.625
529.3  953.125
529.2  906.875
529.1  970.625
529  985
528.9  927.5
528.8  946.875
528.7  920.625
528.6  881.875
528.5  938.125
528.4  954.375
528.3  963.125
528.2  987.5
528.1  928.75
528  988.125

# Region:            Cl2p
# Acquisition Date:  01/13/22 09:38:25 UTC
# Analysis Method:   XPS
# Analyzer:          Phoibos 100 R6
# Analyzer Lens:     LargeArea:1.5kV
# Analyzer Slit:     1:0.2x20\B:open
# Scan Mode:         FixedAnalyzerTransmission
# Curves/Scan:       1
# Values/Curve:      91
# Dwell Time:        0.8
# Excitation Energy: 1486.61
# Binding Energy:    207
# Pass Energy:       30
# Bias Voltage:      90
# Detector Voltage:  2600
# Eff. Workfunction: 4.309
# Source:            X-Ray Dummy
# Comment:           
#
# Cycle: 0
# Number of Scans: 2
#
# Cycle: 0, Curve: 0
# Acquisition Date: 01/13/22 09:38:25 UTC
#
# ColumnLabels: energy counts/s
#
207  750
206.9  798.75
206.8  749.375
206.7  816.875
206.6  748.125
206.5  750.625
206.4  748.125
206.3  766.25
206.2  762.5
206.1  793.125
206  778.125
205.9  756.25
205.8  760
205.7  755.625
205.6  731.875
205.5  765.625
205.4  780.625
205.3  755
205.2  781.875
205.1  771.875
205  794.375
204.9  778.125
204.8  829.375
204.7  779.375
204.6  811.25
204.5  840.625
204.4  848.125
204.3  792.5
204.2  840
204.1  925.625
204  895
203.9  841.25
203.8  904.375
203.7  954.375
203.6  970
203.5  983.75
203.4  996.25
203.3  1037.5
203.2  1086.25
203.1  1083.75
203  1151.875
202.9  1177.5
202.8  1158.75
202.7  1216.25
202.6  1232.5
202.5  1199.375
202.4  1216.25
202.3  1237.5
202.2  1253.125
202.1  1303.75
202  1280.625
201.9  1338.75
201.8  1341.875
201.7  1323.75
201.6  1439.375
201.5  1406.875
201.4  1363.75
201.3  1405.625
201.2  1468.125
201.1  1367.5
201  1370
200.9  1378.75
200.8  1308.75
200.7  1291.25
200.6  1188.75
200.5  1240
200.4  1124.375
200.3  1078.125
200.2  1065.625
200.1  997.5
200  921.875
199.9  916.25
199.8  888.125
199.7  805
199.6  829.375
199.5  812.5
199.4  822.5
199.3  803.75
199.2  780.625
199.1  743.75
199  776.25
198.9  741.25
198.8  721.25
198.7  736.25
198.6  768.75
198.5  743.75
198.4  758.75
198.3  737.5
198.2  734.375
198.1  746.25
198  733.125

