# Created by:        SpecsLab Prodigy, Version 4.60.2-r85849 
#
# XY-Serializer Export Settings:
#   Comment Prefix:           #
#   Output meta data:         yes
#   Energy Axis:              Binding Energy
#   Count Rate:               Counts per Second
#   Separate Scan Data:       no
#   Separate Channel Data:    no
#   External Channel Data:    yes
#   Transmission Function:    no
#   ErrorBar:                 no
#   Operation Results:        yes
#   Time Zone Format:         UTC
#
# Group:             Spectrum Group
#
# Region:            C1s
# Acquisition Date:  01/13/22 05:59:51 UTC
# Analysis Method:   XPS
# Analyzer:          Phoibos 100 R6
# Analyzer Lens:     LargeArea:1.5kV
# Analyzer Slit:     1:0.2x20\B:open
# Scan Mode:         FixedAnalyzerTransmission
# Curves/Scan:       1
# Values/Curve:      131
# Dwell Time:        0.8
# Excitation Energy: 1486.61
# Binding Energy:    295
# Pass Energy:       30
# Bias Voltage:      90
# Detector Voltage:  2600
# Eff. Workfunction: 4.309
# Source:            X-Ray Dummy
# Comment:           
#
# Cycle: 0
# Number of Scans: 120
#
# Cycle: 0, Curve: 0
# Acquisition Date: 01/13/22 05:59:51 UTC
#
# ColumnLabels: energy counts/s
#
295  807.89583
294.9  803.14583
294.8  805.73958
294.7  797.3125
294.6  809.625
294.5  801.28125
294.4  805.42708
294.3  810.5625
294.2  804.98958
294.1  809.26042
294  805.67708
293.9  806.77083
293.8  809.16667
293.7  806.34375
293.6  806.89583
293.5  807.17708
293.4  812.38542
293.3  812.75
293.2  811.17708
293.1  812.9375
293  812.375
292.9  810.0625
292.8  827.47917
292.7  816.78125
292.6  822.60417
292.5  820.33333
292.4  824.15625
292.3  824.59375
292.2  823.73958
292.1  827.46875
292  833.32292
291.9  832.39583
291.8  835.28125
291.7  836.97917
291.6  838.88542
291.5  837.30208
291.4  843.83333
291.3  846.20833
291.2  844.86458
291.1  849.03125
291  861.42708
290.9  861.57292
290.8  862.625
290.7  874.0625
290.6  881.9375
290.5  889.9375
290.4  907.91667
290.3  912.875
290.2  935.0625
290.1  949.72917
290  965.86458
289.9  995.65625
289.8  1021.9167
289.7  1058.0625
289.6  1092.7292
289.5  1147.4479
289.4  1195.8021
289.3  1254.75
289.2  1317.7917
289.1  1398.0417
289  1472.8854
288.9  1551.6771
288.8  1627.9271
288.7  1724.3021
288.6  1800.6667
288.5  1892.3958
288.4  1967.7292
288.3  2043.3438
288.2  2108.3125
288.1  2157.7396
288  2209.6146
287.9  2244.9479
287.8  2268.0208
287.7  2286.0938
287.6  2296.7396
287.5  2295.3958
287.4  2282.8229
287.3  2271.5625
287.2  2252.5521
287.1  2244.5833
287  2222.8438
286.9  2200.7708
286.8  2180.0521
286.7  2146.3646
286.6  2130.75
286.5  2082.2917
286.4  2046.25
286.3  1983.3438
286.2  1921.1354
286.1  1866.1979
286  1761.5208
285.9  1680.6979
285.8  1585.4271
285.7  1489.625
285.6  1398.3646
285.5  1320.9479
285.4  1217.9375
285.3  1138.6667
285.2  1062.8021
285.1  1000.5
285  944.40625
284.9  909.58333
284.8  868.32292
284.7  828.52083
284.6  806.125
284.5  782.82292
284.4  765.3125
284.3  751.20833
284.2  743.55208
284.1  733.75
284  730.1875
283.9  719.35417
283.8  716.13542
283.7  714.42708
283.6  711.5
283.5  717.14583
283.4  701.19792
283.3  704.59375
283.2  700.51042
283.1  701.5
283  692.44792
282.9  690.3125
282.8  687.60417
282.7  688.5625
282.6  693.03125
282.5  683.32292
282.4  688.59375
282.3  690.17708
282.2  691.20833
282.1  689.19792
282  683.97917

# Region:            N1s
# Acquisition Date:  01/13/22 07:48:00 UTC
# Analysis Method:   XPS
# Analyzer:          Phoibos 100 R6
# Analyzer Lens:     LargeArea:1.5kV
# Analyzer Slit:     1:0.2x20\B:open
# Scan Mode:         FixedAnalyzerTransmission
# Curves/Scan:       1
# Values/Curve:      131
# Dwell Time:        0.8
# Excitation Energy: 1486.61
# Binding Energy:    408
# Pass Energy:       30
# Bias Voltage:      90
# Detector Voltage:  2600
# Eff. Workfunction: 4.309
# Source:            X-Ray Dummy
# Comment:           
#
# Cycle: 0
# Number of Scans: 180
#
# Cycle: 0, Curve: 0
# Acquisition Date: 01/13/22 07:48:00 UTC
#
# ColumnLabels: energy counts/s
#
408  777.72917
407.9  779.11806
407.8  780.15278
407.7  780.30556
407.6  777.02083
407.5  778.02778
407.4  776.94444
407.3  780.40278
407.2  782.84028
407.1  779.55556
407  776.69444
406.9  781.14583
406.8  779.11806
406.7  781.27083
406.6  779.5625
406.5  777.98611
406.4  780.32639
406.3  777.38194
406.2  779.78472
406.1  779.71528
406  778.45833
405.9  778.82639
405.8  781.02083
405.7  781.55556
405.6  786.75
405.5  783.86111
405.4  784.70139
405.3  785.75694
405.2  784.77778
405.1  782.13889
405  783.66667
404.9  794.65278
404.8  786.80556
404.7  786.85417
404.6  790.49306
404.5  797.55556
404.4  791.07639
404.3  795.58333
404.2  798.0625
404.1  796.68056
404  807.875
403.9  808.14583
403.8  815.50694
403.7  823.54167
403.6  828.43056
403.5  839.90278
403.4  848.70139
403.3  862.34028
403.2  885.54167
403.1  886.02083
403  899.63194
402.9  915.82639
402.8  931.42361
402.7  941.34028
402.6  960.24306
402.5  968.78472
402.4  978.43056
402.3  991.06944
402.2  997.29167
402.1  1004.3681
402  1015.1111
401.9  1023.6389
401.8  1020.9792
401.7  1023.7431
401.6  1033.0208
401.5  1035.1319
401.4  1040.3681
401.3  1040.6667
401.2  1041.1458
401.1  1043.7986
401  1043.4722
400.9  1042.9167
400.8  1033.6458
400.7  1031.3403
400.6  1019.1736
400.5  1009.8333
400.4  1001.7639
400.3  983.77778
400.2  965.73611
400.1  948.18056
400  932.95833
399.9  917.71528
399.8  897.06944
399.7  876.48611
399.6  870.25
399.5  851.04167
399.4  835.60417
399.3  819.70833
399.2  811.9375
399.1  801.20833
399  793.4375
398.9  787.20833
398.8  778.38889
398.7  776.20139
398.6  772.5
398.5  770.70139
398.4  767.54167
398.3  769.01389
398.2  765.56944
398.1  768.63889
398  764.77083
397.9  768.65972
397.8  761.46528
397.7  758.76389
397.6  764.08333
397.5  762.40972
397.4  757.24306
397.3  767.68056
397.2  762.63194
397.1  765.27778
397  762.375
396.9  761.36111
396.8  762.61111
396.7  763.51389
396.6  761.40278
396.5  762.74306
396.4  760.76389
396.3  760.25
396.2  762.82639
396.1  757.91667
396  757.86111
395.9  759.72222
395.8  758.80556
395.7  763.03472
395.6  759.93056
395.5  761.36806
395.4  763.76389
395.3  762.13194
395.2  756.34722
395.1  760.09722
395  759.63194

# Region:            Si2p
# Acquisition Date:  01/13/22 03:39:29 UTC
# Analysis Method:   XPS
# Analyzer:          Phoibos 100 R6
# Analyzer Lens:     LargeArea:1.5kV
# Analyzer Slit:     1:0.2x20\B:open
# Scan Mode:         FixedAnalyzerTransmission
# Curves/Scan:       1
# Values/Curve:      141
# Dwell Time:        0.8
# Excitation Energy: 1486.61
# Binding Energy:    112
# Pass Energy:       30
# Bias Voltage:      90
# Detector Voltage:  2600
# Eff. Workfunction: 4.309
# Source:            X-Ray Dummy
# Comment:           
#
# Cycle: 0
# Number of Scans: 80
#
# Cycle: 0, Curve: 0
# Acquisition Date: 01/13/22 03:39:29 UTC
#
# ColumnLabels: energy counts/s
#
112  369.70313
111.9  364.67188
111.8  365.01563
111.7  367.0625
111.6  365.65625
111.5  363.92188
111.4  366.46875
111.3  363.35938
111.2  362.51563
111.1  364.375
111  365.29688
110.9  362.79688
110.8  367.375
110.7  359
110.6  367.64063
110.5  363.67188
110.4  361.8125
110.3  364.1875
110.2  361.10938
110.1  364.04688
110  367.51563
109.9  369.85938
109.8  366.40625
109.7  367.76563
109.6  369.10938
109.5  370.95313
109.4  372.48438
109.3  372.125
109.2  366.32813
109.1  368.39063
109  375.10938
108.9  369.64063
108.8  371.78125
108.7  374.32813
108.6  377.1875
108.5  375.375
108.4  374.95313
108.3  381.67188
108.2  380.25
108.1  383.375
108  392.375
107.9  391.75
107.8  399.92188
107.7  406.96875
107.6  414.89063
107.5  420.96875
107.4  434.67188
107.3  453.3125
107.2  466.82813
107.1  486.6875
107  509.60938
106.9  528.35938
106.8  567.21875
106.7  592.96875
106.6  624.53125
106.5  663.1875
106.4  703.54688
106.3  740.09375
106.2  770.84375
106.1  813.14063
106  850.95313
105.9  884.8125
105.8  921.125
105.7  950.35938
105.6  961.10938
105.5  985.03125
105.4  980.3125
105.3  992.29688
105.2  986
105.1  982.8125
105  956.67188
104.9  925.67188
104.8  899.5
104.7  869.21875
104.6  828.20313
104.5  791.21875
104.4  752.75
104.3  715.46875
104.2  678.32813
104.1  638.65625
104  604.01563
103.9  569.125
103.8  549.35938
103.7  516.53125
103.6  490.875
103.5  475.0625
103.4  454.5
103.3  435.48438
103.2  424.96875
103.1  414.375
103  403.09375
102.9  394.125
102.8  386.09375
102.7  379.20313
102.6  374.6875
102.5  372.0625
102.4  364.90625
102.3  361.39063
102.2  359.04688
102.1  358.15625
102  355.23438
101.9  353.35938
101.8  349.1875
101.7  351.89063
101.6  348.67188
101.5  347.875
101.4  352.96875
101.3  350.65625
101.2  347.875
101.1  347
101  345.6875
100.9  349.5625
100.8  344.5
100.7  345.01563
100.6  342.34375
100.5  347.25
100.4  343.82813
100.3  343.1875
100.2  339.23438
100.1  344.0625
100  341.67188
99.9  339.57813
99.8  338.73438
99.7  343.60938
99.6  343.85938
99.5  342.15625
99.4  339.64063
99.3  342.45313
99.2  343.45313
99.1  343.35938
99  340
98.9  337
98.8  355.1875
98.7  341.1875
98.6  341.51563
98.5  341.54688
98.4  339.65625
98.3  336.96875
98.2  338.875
98.1  339.78125
98  338.53125

# Region:            Ba3d
# Acquisition Date:  01/12/22 20:26:56 UTC
# Analysis Method:   XPS
# Analyzer:          Phoibos 100 R6
# Analyzer Lens:     LargeArea:1.5kV
# Analyzer Slit:     1:0.2x20\B:open
# Scan Mode:         FixedAnalyzerTransmission
# Curves/Scan:       1
# Values/Curve:      111
# Dwell Time:        0.8
# Excitation Energy: 1486.61
# Binding Energy:    786
# Pass Energy:       30
# Bias Voltage:      90
# Detector Voltage:  2600
# Eff. Workfunction: 4.309
# Source:            X-Ray Dummy
# Comment:           
#
# Cycle: 0
# Number of Scans: 10
#
# Cycle: 0, Curve: 0
# Acquisition Date: 01/12/22 20:26:56 UTC
#
# ColumnLabels: energy counts/s
#
786  2077.625
785.9  2055.75
785.8  2079.25
785.7  2069.375
785.6  2069.75
785.5  2073.375
785.4  2077.75
785.3  2051.375
785.2  2054
785.1  2059.5
785  2066
784.9  2070.25
784.8  2065.75
784.7  2065.75
784.6  2080.625
784.5  2049.5
784.4  2064.875
784.3  2061
784.2  2063.375
784.1  2116.875
784  2033.375
783.9  2047.5
783.8  2086.5
783.7  2050.875
783.6  2073.875
783.5  2063.625
783.4  2067.75
783.3  2056.75
783.2  2053.875
783.1  2048.125
783  2065.125
782.9  2030.625
782.8  2077
782.7  2086.125
782.6  2052.5
782.5  2044.375
782.4  2093.5
782.3  2067
782.2  2070.875
782.1  2057.875
782  2068.5
781.9  2059.25
781.8  2072.25
781.7  2087.125
781.6  2063
781.5  2083.125
781.4  2034.625
781.3  2060.375
781.2  2074.875
781.1  2079.5
781  2096.75
780.9  2056.625
780.8  2069.625
780.7  2079.875
780.6  2038.25
780.5  2058.75
780.4  2040.75
780.3  2092.75
780.2  2103.375
780.1  2068.625
780  2060.125
779.9  2042.625
779.8  2052.125
779.7  2066.5
779.6  2065.375
779.5  2074.5
779.4  2050.5
779.3  2092.25
779.2  2041.875
779.1  2036.125
779  2037.125
778.9  2051.125
778.8  2018.5
778.7  2030.5
778.6  2054.375
778.5  2037.375
778.4  2011.25
778.3  2043.625
778.2  2053.625
778.1  2061.375
778  2075.75
777.9  2060.375
777.8  2023.375
777.7  2035.375
777.6  1998.625
777.5  2063.25
777.4  2047.375
777.3  2046.625
777.2  2024
777.1  2042.375
777  2039.75
776.9  2028.5
776.8  2043.875
776.7  2059.875
776.6  2057.625
776.5  2050.375
776.4  2052.25
776.3  2039.25
776.2  2065.25
776.1  2043.125
776  2027.5
775.9  2035.625
775.8  1998.75
775.7  2041.625
775.6  2044.75
775.5  2027.5
775.4  2045.75
775.3  2051.625
775.2  2026.5
775.1  2035
775  2048.875

# Region:            O1s
# Acquisition Date:  01/12/22 23:06:12 UTC
# Analysis Method:   XPS
# Analyzer:          Phoibos 100 R6
# Analyzer Lens:     LargeArea:1.5kV
# Analyzer Slit:     1:0.2x20\B:open
# Scan Mode:         FixedAnalyzerTransmission
# Curves/Scan:       1
# Values/Curve:      171
# Dwell Time:        0.8
# Excitation Energy: 1486.61
# Binding Energy:    545
# Pass Energy:       30
# Bias Voltage:      90
# Detector Voltage:  2600
# Eff. Workfunction: 4.309
# Source:            X-Ray Dummy
# Comment:           
#
# Cycle: 0
# Number of Scans: 30
#
# Cycle: 0, Curve: 0
# Acquisition Date: 01/12/22 23:06:12 UTC
#
# ColumnLabels: energy counts/s
#
545  1183.5
544.9  1176.0417
544.8  1174.0417
544.7  1167.6667
544.6  1164.5833
544.5  1146.9583
544.4  1168.8333
544.3  1145.75
544.2  1130.4583
544.1  1130.9583
544  1136.7083
543.9  1133.3333
543.8  1121.25
543.7  1114.2917
543.6  1094.5
543.5  1101.5833
543.4  1101.7083
543.3  1107.375
543.2  1099.25
543.1  1097.2917
543  1092.2917
542.9  1086.125
542.8  1098.4583
542.7  1089.0417
542.6  1084.2083
542.5  1071.4583
542.4  1081.4583
542.3  1081.75
542.2  1080.5
542.1  1090.1667
542  1079.75
541.9  1075.6667
541.8  1079.8333
541.7  1085.0417
541.6  1072.4583
541.5  1076.6667
541.4  1072.5833
541.3  1069.0833
541.2  1072.0833
541.1  1080.8333
541  1077.8333
540.9  1069.5833
540.8  1079.625
540.7  1072.2083
540.6  1076
540.5  1068.0417
540.4  1073.0833
540.3  1077.875
540.2  1073.75
540.1  1075.9167
540  1092.625
539.9  1071.5
539.8  1078.5417
539.7  1064.875
539.6  1081.4583
539.5  1087
539.4  1086.7083
539.3  1090.25
539.2  1081.0833
539.1  1105.125
539  1105.3333
538.9  1100.5
538.8  1108.875
538.7  1113.625
538.6  1108
538.5  1131.125
538.4  1134.2083
538.3  1140.5417
538.2  1139.25
538.1  1152.0417
538  1156.7083
537.9  1185.8333
537.8  1198.125
537.7  1210.125
537.6  1256.2917
537.5  1236.5417
537.4  1261.0833
537.3  1296.3333
537.2  1309.0833
537.1  1354.9583
537  1413.8333
536.9  1461.0833
536.8  1531.125
536.7  1617.2917
536.6  1703.75
536.5  1852.25
536.4  1977.875
536.3  2131.125
536.2  2297.5417
536.1  2518.125
536  2730.7917
535.9  2998.25
535.8  3242.3333
535.7  3547.5833
535.6  3834.2083
535.5  4155.5
535.4  4446.5
535.3  4760.375
535.2  5059
535.1  5276.75
535  5521.9583
534.9  5679.25
534.8  5839.2083
534.7  5903.4583
534.6  5890.7083
534.5  5837.5833
534.4  5684.4583
534.3  5539.6667
534.2  5279.75
534.1  5004.9167
534  4671.0833
533.9  4323.5833
533.8  3990.625
533.7  3641.0417
533.6  3355.3333
533.5  3000.2083
533.4  2707.375
533.3  2454.9167
533.2  2237.75
533.1  2037.2083
533  1852.4167
532.9  1710.2917
532.8  1606.4167
532.7  1481.375
532.6  1404.7083
532.5  1337.5417
532.4  1260.5417
532.3  1221.7083
532.2  1185.7083
532.1  1153.4167
532  1125.9167
531.9  1106.2083
531.8  1088.5
531.7  1059.25
531.6  1049.7917
531.5  1030.7917
531.4  1019.8333
531.3  996.20833
531.2  1001.875
531.1  996.75
531  985.125
530.9  981.16667
530.8  966.75
530.7  966.58333
530.6  951.54167
530.5  958
530.4  956.04167
530.3  957.91667
530.2  952.25
530.1  949.625
530  951.70833
529.9  943.625
529.8  946.20833
529.7  929.54167
529.6  937.95833
529.5  933
529.4  945.04167
529.3  935.875
529.2  939.45833
529.1  924
529  926.95833
528.9  934
528.8  925.91667
528.7  928.91667
528.6  918.58333
528.5  927.41667
528.4  913.125
528.3  921.70833
528.2  909.41667
528.1  922.16667
528  913.125

# Region:            overview
# Acquisition Date:  01/12/22 18:54:24 UTC
# Analysis Method:   XPS
# Analyzer:          Phoibos 100 R6
# Analyzer Lens:     LargeArea:1.5kV
# Analyzer Slit:     1:0.2x20\B:open
# Scan Mode:         FixedAnalyzerTransmission
# Curves/Scan:       1
# Values/Curve:      1205
# Dwell Time:        0.2
# Excitation Energy: 1486.61
# Binding Energy:    1200
# Pass Energy:       50
# Bias Voltage:      90
# Detector Voltage:  2600
# Eff. Workfunction: 4.309
# Source:            X-Ray Dummy
# Comment:           
#
# Cycle: 0
# Number of Scans: 1
#
# Cycle: 0, Curve: 0
# Acquisition Date: 01/12/22 18:54:24 UTC
#
# ColumnLabels: energy counts/s
#
1200  8075
1199  8250
1198  7660
1197  7485
1196  8055
1195  8170
1194  7900
1193  7720
1192  8010
1191  8020
1190  7630
1189  7765
1188  7660
1187  7740
1186  7805
1185  7810
1184  7760
1183  8260
1182  7880
1181  8050
1180  7715
1179  7790
1178  7485
1177  8140
1176  7935
1175  7725
1174  7730
1173  7905
1172  7890
1171  7875
1170  8030
1169  7690
1168  7780
1167  7785
1166  7920
1165  7995
1164  7705
1163  7320
1162  7620
1161  7520
1160  7625
1159  7420
1158  7845
1157  7790
1156  7970
1155  7810
1154  7890
1153  7385
1152  7735
1151  7880
1150  8085
1149  7555
1148  7935
1147  7945
1146  7395
1145  7830
1144  7965
1143  7850
1142  7450
1141  7710
1140  7680
1139  7615
1138  7865
1137  7705
1136  7810
1135  8025
1134  7705
1133  8210
1132  7700
1131  7825
1130  7535
1129  7795
1128  7385
1127  7465
1126  7580
1125  7965
1124  7765
1123  7840
1122  7760
1121  7520
1120  7750
1119  7860
1118  7810
1117  7850
1116  7565
1115  8345
1114  7730
1113  7720
1112  7535
1111  7655
1110  7610
1109  7870
1108  7650
1107  7840
1106  8005
1105  7790
1104  7545
1103  8060
1102  7400
1101  7495
1100  7425
1099  7655
1098  8020
1097  7770
1096  7140
1095  7720
1094  7880
1093  7090
1092  7170
1091  7695
1090  7495
1089  7390
1088  7520
1087  7570
1086  7580
1085  7405
1084  7505
1083  7020
1082  7475
1081  7565
1080  7300
1079  7700
1078  7365
1077  7290
1076  7505
1075  7625
1074  7540
1073  7290
1072  7235
1071  7020
1070  7295
1069  7615
1068  7535
1067  7875
1066  7350
1065  7600
1064  7305
1063  7625
1062  7475
1061  7415
1060  7500
1059  7645
1058  7195
1057  7700
1056  7390
1055  7355
1054  7335
1053  7680
1052  7545
1051  7480
1050  7610
1049  7820
1048  7495
1047  7425
1046  7755
1045  7475
1044  7435
1043  7135
1042  7165
1041  7550
1040  7480
1039  7620
1038  7150
1037  7545
1036  7760
1035  6930
1034  7125
1033  7395
1032  7230
1031  7585
1030  7295
1029  7245
1028  7520
1027  7430
1026  7340
1025  7670
1024  7125
1023  7500
1022  7475
1021  7250
1020  7845
1019  7270
1018  7445
1017  7455
1016  7435
1015  7170
1014  7445
1013  7510
1012  7120
1011  7175
1010  7360
1009  7340
1008  7280
1007  7145
1006  7480
1005  7355
1004  7600
1003  7705
1002  7785
1001  7170
1000  7165
999  7175
998  7085
997  7440
996  6875
995  6825
994  7140
993  6770
992  6575
991  6950
990  6745
989  6760
988  6560
987  6590
986  7040
985  6745
984  7470
983  7630
982  7700
981  8025
980  7395
979  7380
978  7245
977  6955
976  6555
975  6420
974  6500
973  6300
972  5695
971  5970
970  5790
969  5925
968  5630
967  5610
966  5535
965  5730
964  5505
963  5315
962  5510
961  5585
960  5465
959  5700
958  5455
957  5515
956  5725
955  5700
954  5775
953  5915
952  5770
951  5820
950  5965
949  5625
948  5660
947  5765
946  5520
945  5640
944  5520
943  5585
942  5625
941  5875
940  5615
939  5580
938  5825
937  5790
936  5300
935  5755
934  5575
933  5505
932  5630
931  5515
930  5560
929  5600
928  5590
927  5605
926  5610
925  5880
924  5325
923  5745
922  5625
921  5770
920  5635
919  5495
918  5820
917  5595
916  5305
915  5420
914  5780
913  5710
912  5610
911  5580
910  5565
909  5615
908  5295
907  5790
906  5825
905  5610
904  5375
903  5675
902  5700
901  5715
900  5685
899  5600
898  5985
897  5890
896  5865
895  5310
894  5815
893  5570
892  5660
891  6070
890  5370
889  5850
888  5485
887  5600
886  5520
885  5540
884  5875
883  5335
882  5450
881  5540
880  5450
879  5650
878  5625
877  5640
876  5535
875  5580
874  5285
873  5575
872  5635
871  5575
870  5280
869  5785
868  5535
867  5425
866  5420
865  5500
864  5575
863  5475
862  5450
861  5590
860  5590
859  5550
858  5580
857  5450
856  5415
855  5735
854  5525
853  5845
852  5855
851  5450
850  5605
849  5415
848  5610
847  5470
846  5710
845  5560
844  5590
843  5565
842  5515
841  5470
840  5795
839  5645
838  5700
837  5645
836  5815
835  5690
834  5505
833  5600
832  5325
831  5990
830  5415
829  5600
828  5720
827  5755
826  5710
825  5415
824  5805
823  5580
822  5570
821  5720
820  5540
819  5550
818  5660
817  5570
816  5925
815  5625
814  5475
813  5580
812  5815
811  5495
810  5795
809  5585
808  5645
807  5870
806  5550
805  5730
804  5540
803  5495
802  5270
801  5520
800  5585
799  5710
798  5770
797  5285
796  5430
795  5655
794  5700
793  5545
792  5430
791  5545
790  5440
789  5965
788  5560
787  5655
786  5840
785  5695
784  5710
783  5790
782  5840
781  5645
780  5525
779  5510
778  5685
777  5715
776  5505
775  5705
774  5605
773  5775
772  5730
771  5685
770  5585
769  5665
768  5470
767  5640
766  5565
765  5430
764  5770
763  5565
762  5710
761  5590
760  5385
759  5515
758  5685
757  5220
756  5640
755  5560
754  5655
753  5545
752  5820
751  5505
750  5605
749  5750
748  5595
747  5620
746  5505
745  5545
744  5715
743  5370
742  5865
741  5365
740  5715
739  5680
738  5555
737  5735
736  5720
735  5435
734  5750
733  5600
732  5615
731  5685
730  5580
729  5665
728  5525
727  5790
726  5775
725  5565
724  5680
723  5730
722  5615
721  5585
720  5675
719  5930
718  5670
717  5775
716  5700
715  5720
714  5690
713  5675
712  5505
711  5815
710  5765
709  5735
708  5565
707  5595
706  5690
705  5915
704  6080
703  5485
702  5760
701  5635
700  5270
699  5700
698  5645
697  5690
696  5750
695  5585
694  5280
693  5485
692  5660
691  5390
690  5855
689  5665
688  5590
687  6085
686  5670
685  5660
684  5360
683  5720
682  5665
681  5760
680  5850
679  5965
678  5425
677  5575
676  5695
675  5330
674  5620
673  5910
672  5430
671  5970
670  5675
669  5395
668  5955
667  5705
666  5665
665  5760
664  5790
663  5735
662  5865
661  5695
660  5810
659  5555
658  5605
657  5540
656  5735
655  5830
654  5780
653  5505
652  5430
651  6045
650  5850
649  5580
648  6050
647  5665
646  5825
645  5510
644  6110
643  5710
642  5610
641  5560
640  5870
639  5595
638  5380
637  5610
636  5745
635  5490
634  5670
633  5655
632  5640
631  5640
630  5605
629  5635
628  5765
627  5705
626  5505
625  5570
624  5490
623  5665
622  5730
621  6000
620  5605
619  5580
618  5470
617  5645
616  5625
615  5605
614  5445
613  5665
612  5715
611  5790
610  5455
609  5530
608  5505
607  5585
606  5560
605  5370
604  5585
603  5655
602  5575
601  5510
600  5870
599  5415
598  5330
597  5655
596  5375
595  5560
594  5635
593  5525
592  5585
591  5630
590  5650
589  5935
588  5700
587  5460
586  5555
585  5555
584  5625
583  5450
582  5530
581  5260
580  5785
579  5270
578  5395
577  5410
576  5520
575  5610
574  5540
573  5185
572  5350
571  5150
570  4995
569  5085
568  4910
567  5410
566  4925
565  5590
564  5270
563  5360
562  5935
561  5635
560  5965
559  5375
558  5585
557  5425
556  5545
555  5780
554  5245
553  4930
552  4995
551  4830
550  4435
549  4580
548  4310
547  4355
546  3895
545  3820
544  3725
543  3585
542  3700
541  3425
540  3740
539  3565
538  4020
537  6190
536  10660
535  14800
534  11725
533  6225
532  3825
531  3105
530  3165
529  3195
528  3130
527  3095
526  3605
525  3850
524  3630
523  3415
522  3105
521  2970
520  2815
519  2805
518  2820
517  2920
516  3015
515  2765
514  2995
513  2840
512  2725
511  2745
510  3005
509  2545
508  2740
507  2695
506  2770
505  2695
504  2775
503  2705
502  2565
501  2740
500  2710
499  2750
498  2780
497  2690
496  2700
495  2880
494  2860
493  2860
492  2570
491  2735
490  2740
489  2765
488  2925
487  2815
486  2675
485  2845
484  2525
483  2550
482  2750
481  2755
480  2410
479  2575
478  2740
477  3025
476  2650
475  2805
474  2540
473  2750
472  2585
471  2715
470  2690
469  2680
468  2825
467  2625
466  2725
465  2740
464  2680
463  2670
462  2620
461  2570
460  2440
459  2580
458  2685
457  2650
456  2525
455  2645
454  2585
453  2520
452  2490
451  2760
450  2760
449  2415
448  2370
447  2600
446  2690
445  2625
444  2760
443  2785
442  2600
441  2700
440  2505
439  2395
438  2785
437  2585
436  2425
435  2300
434  2600
433  2640
432  2580
431  2645
430  2510
429  2675
428  2505
427  2550
426  2615
425  2460
424  2650
423  2605
422  2410
421  2395
420  2465
419  2595
418  2505
417  2460
416  2455
415  2645
414  2525
413  2635
412  2325
411  2410
410  2635
409  2310
408  2575
407  2685
406  2640
405  2590
404  2610
403  2895
402  3020
401  3315
400  2970
399  2645
398  2560
397  2670
396  2515
395  2500
394  2595
393  2550
392  2900
391  2395
390  2260
389  2525
388  2375
387  2395
386  2630
385  2385
384  2370
383  2295
382  2385
381  2290
380  2540
379  2600
378  2510
377  2390
376  2510
375  2415
374  2510
373  2465
372  2285
371  2715
370  2530
369  2575
368  2300
367  2610
366  2465
365  2555
364  2475
363  2320
362  2510
361  2465
360  2430
359  2470
358  2315
357  2500
356  2475
355  2550
354  2465
353  2530
352  2430
351  2650
350  2420
349  2525
348  2485
347  2530
346  2375
345  2510
344  2570
343  2555
342  2545
341  2475
340  2470
339  2530
338  2480
337  2550
336  2560
335  2585
334  2645
333  2670
332  2760
331  2635
330  2765
329  2650
328  2540
327  2580
326  2695
325  2700
324  2650
323  2470
322  2655
321  2730
320  2585
319  2735
318  2705
317  2600
316  2745
315  2755
314  2835
313  2590
312  2560
311  2655
310  2880
309  2695
308  2710
307  2450
306  2560
305  2590
304  2400
303  2620
302  2395
301  2545
300  2315
299  2220
298  2405
297  2605
296  2575
295  2525
294  2400
293  2550
292  2785
291  2760
290  3415
289  4875
288  6290
287  6100
286  4680
285  3095
284  2310
283  2205
282  2095
281  2080
280  2220
279  2350
278  2470
277  2420
276  2205
275  2275
274  2100
273  2085
272  1785
271  1925
270  1880
269  2065
268  2010
267  1855
266  1885
265  1835
264  2100
263  1855
262  1905
261  1880
260  2000
259  1980
258  1795
257  1990
256  1960
255  1945
254  1890
253  1950
252  2050
251  1830
250  1990
249  1870
248  1825
247  1860
246  1985
245  1995
244  2115
243  2000
242  2000
241  2005
240  1885
239  1775
238  1715
237  1790
236  1990
235  1950
234  1895
233  2010
232  1825
231  1950
230  2060
229  2005
228  1875
227  1875
226  1970
225  1925
224  1730
223  1800
222  1800
221  2065
220  1825
219  1780
218  1810
217  1885
216  2120
215  1720
214  1820
213  1720
212  1900
211  1925
210  1800
209  1980
208  1850
207  1830
206  1755
205  1975
204  1830
203  1830
202  1660
201  1775
200  1855
199  1715
198  1770
197  1910
196  1665
195  1770
194  1940
193  1795
192  1825
191  1650
190  1870
189  1845
188  1705
187  1885
186  1600
185  1875
184  1850
183  1830
182  1905
181  2000
180  1985
179  1850
178  1765
177  1920
176  1900
175  1725
174  1760
173  1720
172  1715
171  1485
170  1695
169  1595
168  1395
167  1540
166  1495
165  1420
164  1500
163  1480
162  1400
161  1700
160  1615
159  1960
158  2415
157  3010
156  2780
155  2170
154  1735
153  1660
152  1425
151  1485
150  1475
149  1570
148  1470
147  1600
146  1430
145  1490
144  1510
143  1370
142  1340
141  1370
140  1390
139  1360
138  1300
137  1315
136  1325
135  1285
134  1365
133  1215
132  1390
131  1380
130  1430
129  1310
128  1500
127  1330
126  1230
125  1315
124  1370
123  1420
122  1170
121  1190
120  1240
119  1180
118  1340
117  1085
116  1210
115  1150
114  1140
113  1145
112  1085
111  1095
110  1000
109  1065
108  1285
107  1760
106  2430
105  2505
104  1685
103  1115
102  995
101  965
100  1015
99  1045
98  945
97  1130
96  1170
95  1210
94  1025
93  1060
92  985
91  1005
90  1045
89  990
88  940
87  1035
86  1055
85  1050
84  945
83  875
82  1025
81  970
80  1030
79  1000
78  985
77  905
76  1015
75  1085
74  1015
73  955
72  845
71  905
70  955
69  870
68  1005
67  950
66  995
65  925
64  940
63  1010
62  915
61  945
60  995
59  990
58  915
57  885
56  915
55  900
54  1035
53  965
52  1030
51  995
50  970
49  980
48  945
47  1060
46  900
45  930
44  875
43  885
42  790
41  825
40  930
39  890
38  930
37  780
36  875
35  990
34  935
33  830
32  885
31  965
30  1020
29  1095
28  1065
27  1165
26  935
25  930
24  905
23  825
22  905
21  730
20  815
19  815
18  880
17  755
16  845
15  835
14  765
13  800
12  780
11  750
10  920
9  875
8  755
7  745
6  735
5  805
4  785
3  830
2  745
1  660
-2.2737368e-013  700
-1  745
-2  730
-3  695
-4  730

# Region:            Cl2p
# Acquisition Date:  01/12/22 20:30:29 UTC
# Analysis Method:   XPS
# Analyzer:          Phoibos 100 R6
# Analyzer Lens:     LargeArea:1.5kV
# Analyzer Slit:     1:0.2x20\B:open
# Scan Mode:         FixedAnalyzerTransmission
# Curves/Scan:       1
# Values/Curve:      91
# Dwell Time:        0.8
# Excitation Energy: 1486.61
# Binding Energy:    207
# Pass Energy:       30
# Bias Voltage:      90
# Detector Voltage:  2600
# Eff. Workfunction: 4.309
# Source:            X-Ray Dummy
# Comment:           
#
# Cycle: 0
# Number of Scans: 10
#
# Cycle: 0, Curve: 0
# Acquisition Date: 01/12/22 20:30:29 UTC
#
# ColumnLabels: energy counts/s
#
207  624.125
206.9  601.625
206.8  604.875
206.7  611.375
206.6  616.75
206.5  603.25
206.4  613.75
206.3  611.625
206.2  604.75
206.1  602.75
206  610.5
205.9  617.75
205.8  600.625
205.7  617.125
205.6  600.875
205.5  609.5
205.4  607.5
205.3  595.5
205.2  589.625
205.1  607.625
205  602.5
204.9  612.625
204.8  600
204.7  606
204.6  602.625
204.5  612.125
204.4  609.625
204.3  625.75
204.2  610.375
204.1  592.75
204  608.25
203.9  603.125
203.8  610.25
203.7  609.25
203.6  604.25
203.5  599.625
203.4  602.375
203.3  618.125
203.2  606.375
203.1  606.25
203  600.875
202.9  592.125
202.8  606.5
202.7  624.25
202.6  621.875
202.5  602
202.4  614.125
202.3  598.75
202.2  601.375
202.1  621
202  602.125
201.9  612.25
201.8  595.75
201.7  604.5
201.6  601.625
201.5  614
201.4  592
201.3  607.25
201.2  608.5
201.1  593.75
201  615.875
200.9  618.625
200.8  612.25
200.7  602.875
200.6  614.5
200.5  590.625
200.4  609.125
200.3  590.125
200.2  609.25
200.1  601.125
200  619.5
199.9  597.125
199.8  601.625
199.7  611.125
199.6  595.125
199.5  619.875
199.4  603.375
199.3  581.5
199.2  594.25
199.1  627.75
199  609.125
198.9  608.75
198.8  606
198.7  612.875
198.6  588.25
198.5  596.625
198.4  590.375
198.3  597.125
198.2  605.5
198.1  605.5
198  614.75

