# Created by:        SpecsLab Prodigy, Version 4.60.2-r85849 
#
# XY-Serializer Export Settings:
#   Comment Prefix:           #
#   Output meta data:         yes
#   Energy Axis:              Binding Energy
#   Count Rate:               Counts per Second
#   Separate Scan Data:       no
#   Separate Channel Data:    no
#   External Channel Data:    yes
#   Transmission Function:    no
#   ErrorBar:                 no
#   Operation Results:        yes
#   Time Zone Format:         UTC
#
# Group:             20210507_Au111_clean
#
# Region:            C 1s
# Acquisition Date:  05/21/21 17:13:58 UTC
# Analysis Method:   XPS
# Analyzer:          Phoibos 100 R6
# Analyzer Lens:     LargeArea:1.5kV
# Analyzer Slit:     1:0.2x20\B:open
# Scan Mode:         FixedAnalyzerTransmission
# Curves/Scan:       1
# Values/Curve:      151
# Dwell Time:        0.8
# Excitation Energy: 1486.61
# Binding Energy:    295
# Pass Energy:       30
# Bias Voltage:      90
# Detector Voltage:  2400
# Eff. Workfunction: 4.309
# Source:            X-Ray Dummy
# Comment:           
#
# Cycle: 0
# Number of Scans: 3
#
# Cycle: 0, Curve: 0
# Acquisition Date: 05/21/21 17:13:58 UTC
#
# ColumnLabels: energy counts/s
#
295  2814.5833
294.9  2745.4167
294.8  2753.75
294.7  2761.25
294.6  2740
294.5  2760
294.4  2744.5833
294.3  2781.6667
294.2  2721.6667
294.1  2773.3333
294  2727.9167
293.9  2713.75
293.8  2711.25
293.7  2772.0833
293.6  2785
293.5  2722.0833
293.4  2769.1667
293.3  2761.25
293.2  2731.6667
293.1  2662.0833
293  2718.3333
292.9  2744.5833
292.8  2757.0833
292.7  2732.0833
292.6  2827.5
292.5  2771.25
292.4  2777.0833
292.3  2744.5833
292.2  2701.25
292.1  2721.6667
292  2708.75
291.9  2733.3333
291.8  2655
291.7  2731.6667
291.6  2768.75
291.5  2743.75
291.4  2680
291.3  2710.8333
291.2  2733.75
291.1  2708.3333
291  2744.1667
290.9  2661.25
290.8  2745.8333
290.7  2756.25
290.6  2723.3333
290.5  2691.6667
290.4  2725.8333
290.3  2795.4167
290.2  2767.9167
290.1  2759.5833
290  2647.0833
289.9  2732.0833
289.8  2737.5
289.7  2784.5833
289.6  2724.5833
289.5  2686.6667
289.4  2766.6667
289.3  2724.1667
289.2  2800.4167
289.1  2672.0833
289  2756.6667
288.9  2751.6667
288.8  2805.4167
288.7  2728.75
288.6  2749.5833
288.5  2695.8333
288.4  2756.6667
288.3  2777.0833
288.2  2757.0833
288.1  2738.3333
288  2748.3333
287.9  2732.9167
287.8  2814.1667
287.7  2701.6667
287.6  2699.5833
287.5  2802.0833
287.4  2744.5833
287.3  2767.0833
287.2  2819.1667
287.1  2807.0833
287  2792.9167
286.9  2733.3333
286.8  2728.3333
286.7  2752.9167
286.6  2751.25
286.5  2718.75
286.4  2747.0833
286.3  2822.5
286.2  2817.0833
286.1  2793.75
286  2817.9167
285.9  2803.3333
285.8  2802.0833
285.7  2812.9167
285.6  2744.5833
285.5  2795
285.4  2825.4167
285.3  2830.4167
285.2  2843.75
285.1  2845.4167
285  2847.9167
284.9  2790
284.8  2801.6667
284.7  2814.1667
284.6  2790.8333
284.5  2829.5833
284.4  2875.8333
284.3  2809.1667
284.2  2794.5833
284.1  2822.0833
284  2810
283.9  2832.0833
283.8  2827.5
283.7  2840.8333
283.6  2831.25
283.5  2793.75
283.4  2819.5833
283.3  2816.25
283.2  2861.25
283.1  2771.25
283  2843.75
282.9  2795
282.8  2756.6667
282.7  2796.25
282.6  2775.8333
282.5  2804.5833
282.4  2829.5833
282.3  2790.8333
282.2  2786.6667
282.1  2764.5833
282  2758.75
281.9  2727.9167
281.8  2727.9167
281.7  2745.8333
281.6  2775.8333
281.5  2742.9167
281.4  2768.75
281.3  2758.3333
281.2  2722.0833
281.1  2712.0833
281  2745
280.9  2723.75
280.8  2715
280.7  2757.9167
280.6  2731.6667
280.5  2687.0833
280.4  2761.6667
280.3  2687.0833
280.2  2773.75
280.1  2715.4167
280  2773.3333

# Region:            N 1s
# Acquisition Date:  05/21/21 16:50:09 UTC
# Analysis Method:   XPS
# Analyzer:          Phoibos 100 R6
# Analyzer Lens:     LargeArea:1.5kV
# Analyzer Slit:     1:0.2x20\B:open
# Scan Mode:         FixedAnalyzerTransmission
# Curves/Scan:       1
# Values/Curve:      101
# Dwell Time:        0.8
# Excitation Energy: 1486.61
# Binding Energy:    405
# Pass Energy:       30
# Bias Voltage:      90
# Detector Voltage:  2400
# Eff. Workfunction: 4.309
# Source:            X-Ray Dummy
# Comment:           
#
# Cycle: 0
# Number of Scans: 1
#
# Cycle: 0, Curve: 0
# Acquisition Date: 05/21/21 16:50:09 UTC
#
# ColumnLabels: energy counts/s
#
405  4675
404.9  4792.5
404.8  4522.5
404.7  4838.75
404.6  4716.25
404.5  4787.5
404.4  4830
404.3  4725
404.2  4820
404.1  4778.75
404  4795
403.9  4736.25
403.8  4827.5
403.7  4791.25
403.6  4880
403.5  4701.25
403.4  4758.75
403.3  4680
403.2  4841.25
403.1  4708.75
403  4775
402.9  4601.25
402.8  4778.75
402.7  4850
402.6  4848.75
402.5  4683.75
402.4  4640
402.3  4795
402.2  4767.5
402.1  4757.5
402  4555
401.9  4721.25
401.8  4832.5
401.7  4813.75
401.6  4840
401.5  4701.25
401.4  4908.75
401.3  5007.5
401.2  4720
401.1  4767.5
401  4838.75
400.9  4702.5
400.8  4658.75
400.7  4787.5
400.6  4891.25
400.5  4563.75
400.4  4678.75
400.3  4740
400.2  4786.25
400.1  4876.25
400  4815
399.9  4867.5
399.8  4781.25
399.7  4798.75
399.6  4796.25
399.5  4756.25
399.4  4688.75
399.3  4832.5
399.2  4795
399.1  4805
399  4860
398.9  5008.75
398.8  4822.5
398.7  4716.25
398.6  4846.25
398.5  4785
398.4  4792.5
398.3  4710
398.2  4741.25
398.1  4876.25
398  4775
397.9  4763.75
397.8  4733.75
397.7  4735
397.6  4793.75
397.5  4746.25
397.4  4812.5
397.3  4730
397.2  4651.25
397.1  4823.75
397  4833.75
396.9  4753.75
396.8  4765
396.7  4805
396.6  4901.25
396.5  4888.75
396.4  4703.75
396.3  4796.25
396.2  4747.5
396.1  4760
396  4710
395.9  4675
395.8  4755
395.7  4827.5
395.6  4793.75
395.5  4586.25
395.4  4712.5
395.3  5007.5
395.2  4711.25
395.1  4806.25
395  4793.75

# Region:            O 1s
# Acquisition Date:  05/21/21 17:47:03 UTC
# Analysis Method:   XPS
# Analyzer:          Phoibos 100 R6
# Analyzer Lens:     LargeArea:1.5kV
# Analyzer Slit:     1:0.2x20\B:open
# Scan Mode:         FixedAnalyzerTransmission
# Curves/Scan:       1
# Values/Curve:      351
# Dwell Time:        0.8
# Excitation Energy: 1486.61
# Binding Energy:    560
# Pass Energy:       30
# Bias Voltage:      90
# Detector Voltage:  2400
# Eff. Workfunction: 4.309
# Source:            X-Ray Dummy
# Comment:           
#
# Cycle: 0
# Number of Scans: 8
#
# Cycle: 0, Curve: 0
# Acquisition Date: 05/21/21 17:47:03 UTC
#
# ColumnLabels: energy counts/s
#
560  5120.1563
559.9  5060.4688
559.8  5093.2813
559.7  5087.8125
559.6  5068.4375
559.5  5054.375
559.4  5091.4063
559.3  5063.75
559.2  5091.875
559.1  5069.5313
559  5079.5313
558.9  5059.2188
558.8  5093.5938
558.7  5097.8125
558.6  5044.6875
558.5  5033.4375
558.4  5083.4375
558.3  5061.0938
558.2  5063.4375
558.1  5080.1563
558  5129.8438
557.9  5094.2188
557.8  5048.9063
557.7  5075.3125
557.6  5072.5
557.5  5045
557.4  5106.0938
557.3  5098.5938
557.2  5052.0313
557.1  5125.3125
557  5130.625
556.9  5112.3438
556.8  5085.3125
556.7  5130.4688
556.6  5071.0938
556.5  5109.8438
556.4  5158.125
556.3  5118.9063
556.2  5145.9375
556.1  5078.75
556  5144.375
555.9  5165.625
555.8  5128.9063
555.7  5191.5625
555.6  5166.7188
555.5  5089.5313
555.4  5147.3438
555.3  5183.2813
555.2  5216.5625
555.1  5133.75
555  5190.4688
554.9  5190.4688
554.8  5135.625
554.7  5118.4375
554.6  5251.5625
554.5  5208.2813
554.4  5202.1875
554.3  5228.5938
554.2  5255.3125
554.1  5242.6563
554  5196.875
553.9  5232.3438
553.8  5232.5
553.7  5243.5938
553.6  5250.3125
553.5  5287.1875
553.4  5262.6563
553.3  5283.125
553.2  5296.25
553.1  5307.9688
553  5324.6875
552.9  5288.75
552.8  5335.1563
552.7  5298.125
552.6  5341.0938
552.5  5402.9688
552.4  5384.6875
552.3  5348.9063
552.2  5399.375
552.1  5383.2813
552  5365.625
551.9  5494.2188
551.8  5463.4375
551.7  5494.2188
551.6  5492.3438
551.5  5485
551.4  5498.2813
551.3  5560.9375
551.2  5621.5625
551.1  5543.2813
551  5633.2813
550.9  5602.1875
550.8  5667.9688
550.7  5631.7188
550.6  5725.7813
550.5  5799.5313
550.4  5719.2188
550.3  5759.6875
550.2  5793.5938
550.1  5815.1563
550  5832.8125
549.9  5889.0625
549.8  5926.5625
549.7  5934.375
549.6  6028.2813
549.5  6002.8125
549.4  6049.5313
549.3  6134.2188
549.2  6139.2188
549.1  6152.3438
549  6256.4063
548.9  6278.4375
548.8  6319.8438
548.7  6416.875
548.6  6420.1563
548.5  6436.4063
548.4  6531.0938
548.3  6533.9063
548.2  6536.4063
548.1  6591.4063
548  6708.2813
547.9  6746.5625
547.8  6737.9688
547.7  6776.5625
547.6  6848.75
547.5  6873.9063
547.4  6903.2813
547.3  6887.8125
547.2  6986.4063
547.1  6970.3125
547  6961.4063
546.9  7042.8125
546.8  7057.5
546.7  6989.5313
546.6  7013.4375
546.5  6990.4688
546.4  7021.25
546.3  6970
546.2  6984.2188
546.1  6974.6875
546  6981.0938
545.9  6891.5625
545.8  6869.2188
545.7  6826.5625
545.6  6800.3125
545.5  6724.375
545.4  6645.625
545.3  6659.6875
545.2  6634.375
545.1  6571.0938
545  6450.4688
544.9  6444.0625
544.8  6376.5625
544.7  6324.5313
544.6  6256.25
544.5  6242.9688
544.4  6155.1563
544.3  6137.5
544.2  6041.0938
544.1  5980.3125
544  5978.75
543.9  5925.3125
543.8  5878.4375
543.7  5826.7188
543.6  5787.3438
543.5  5734.8438
543.4  5648.2813
543.3  5595
543.2  5641.0938
543.1  5521.7188
543  5509.0625
542.9  5457.0313
542.8  5460.1563
542.7  5399.0625
542.6  5366.25
542.5  5401.0938
542.4  5321.7188
542.3  5353.125
542.2  5292.9688
542.1  5292.5
542  5218.2813
541.9  5205.625
541.8  5189.2188
541.7  5158.125
541.6  5157.3438
541.5  5155.1563
541.4  5125
541.3  5083.75
541.2  5043.4375
541.1  5061.875
541  5036.4063
540.9  5061.25
540.8  5037.8125
540.7  4955.7813
540.6  4966.875
540.5  4994.8438
540.4  4957.1875
540.3  4927.5
540.2  4905
540.1  4915.7813
540  4920.7813
539.9  4916.0938
539.8  4907.1875
539.7  4886.7188
539.6  4841.0938
539.5  4878.4375
539.4  4875.1563
539.3  4877.0313
539.2  4823.75
539.1  4777.9688
539  4831.875
538.9  4824.2188
538.8  4785.9375
538.7  4809.6875
538.6  4788.2813
538.5  4851.7188
538.4  4849.0625
538.3  4823.9063
538.2  4769.2188
538.1  4849.2188
538  4827.5
537.9  4786.0938
537.8  4798.5938
537.7  4779.375
537.6  4754.375
537.5  4793.2813
537.4  4810.625
537.3  4792.0313
537.2  4796.4063
537.1  4766.5625
537  4804.2188
536.9  4797.6563
536.8  4778.2813
536.7  4726.0938
536.6  4751.4063
536.5  4740.7813
536.4  4745.4688
536.3  4749.8438
536.2  4758.2813
536.1  4768.125
536  4702.1875
535.9  4736.25
535.8  4745.9375
535.7  4739.0625
535.6  4745.1563
535.5  4715.7813
535.4  4686.25
535.3  4706.7188
535.2  4714.8438
535.1  4623.5938
535  4692.9688
534.9  4694.2188
534.8  4684.8438
534.7  4680.7813
534.6  4610.7813
534.5  4667.0313
534.4  4629.8438
534.3  4658.4375
534.2  4612.8125
534.1  4630.1563
534  4605.1563
533.9  4592.3438
533.8  4617.6563
533.7  4632.6563
533.6  4619.6875
533.5  4640.9375
533.4  4660.7813
533.3  4586.4063
533.2  4613.75
533.1  4622.0313
533  4596.5625
532.9  4596.0938
532.8  4575.3125
532.7  4593.125
532.6  4576.0938
532.5  4597.9688
532.4  4589.6875
532.3  4626.7188
532.2  4626.875
532.1  4598.4375
532  4608.5938
531.9  4602.0313
531.8  4638.5938
531.7  4604.375
531.6  4545.7813
531.5  4656.25
531.4  4627.1875
531.3  4593.4375
531.2  4613.125
531.1  4617.1875
531  4572.5
530.9  4522.9688
530.8  4553.4375
530.7  4544.5313
530.6  4578.75
530.5  4517.6563
530.4  4562.9688
530.3  4525.3125
530.2  4488.2813
530.1  4452.8125
530  4421.4063
529.9  4444.8438
529.8  4486.7188
529.7  4438.9063
529.6  4451.875
529.5  4396.875
529.4  4381.25
529.3  4392.0313
529.2  4372.9688
529.1  4387.5
529  4447.3438
528.9  4364.6875
528.8  4348.4375
528.7  4398.125
528.6  4365.7813
528.5  4382.0313
528.4  4336.25
528.3  4382.0313
528.2  4333.75
528.1  4336.4063
528  4399.0625
527.9  4332.5
527.8  4377.6563
527.7  4362.5
527.6  4335.7813
527.5  4393.125
527.4  4321.25
527.3  4302.8125
527.2  4359.2188
527.1  4393.4375
527  4311.4063
526.9  4395.3125
526.8  4358.5938
526.7  4358.75
526.6  4315
526.5  4352.3438
526.4  4358.4375
526.3  4338.125
526.2  4370
526.1  4376.5625
526  4291.0938
525.9  4302.0313
525.8  4379.0625
525.7  4339.5313
525.6  4316.4063
525.5  4370.625
525.4  4341.7188
525.3  4329.6875
525.2  4399.6875
525.1  4358.2813
525  4320.625

# Region:            overview
# Acquisition Date:  05/21/21 16:59:23 UTC
# Analysis Method:   XPS
# Analyzer:          Phoibos 100 R6
# Analyzer Lens:     MediumArea:1.5kV
# Analyzer Slit:     1:0.2x20\B:open
# Scan Mode:         FixedAnalyzerTransmission
# Curves/Scan:       1
# Values/Curve:      1205
# Dwell Time:        0.2
# Excitation Energy: 1486.61
# Binding Energy:    1200
# Pass Energy:       50
# Bias Voltage:      90
# Detector Voltage:  2400
# Eff. Workfunction: 4.309
# Source:            X-Ray Dummy
# Comment:           
#
# Cycle: 0
# Number of Scans: 1
#
# Cycle: 0, Curve: 0
# Acquisition Date: 05/21/21 16:59:23 UTC
#
# ColumnLabels: energy counts/s
#
1200  8780
1199  9135
1198  8400
1197  8665
1196  8770
1195  8805
1194  8625
1193  8785
1192  8300
1191  8235
1190  8325
1189  8320
1188  8160
1187  8320
1186  7910
1185  8075
1184  8190
1183  7920
1182  8220
1181  8145
1180  8400
1179  7915
1178  7930
1177  8125
1176  7990
1175  8025
1174  7545
1173  7775
1172  7905
1171  7430
1170  7725
1169  8015
1168  7545
1167  7635
1166  7870
1165  7855
1164  7705
1163  7665
1162  7590
1161  7535
1160  7130
1159  7250
1158  7025
1157  7800
1156  7425
1155  7600
1154  7175
1153  7345
1152  7305
1151  7445
1150  7195
1149  7435
1148  7280
1147  7395
1146  7310
1145  7145
1144  7315
1143  7110
1142  7000
1141  7255
1140  7050
1139  7250
1138  7050
1137  7630
1136  7190
1135  6585
1134  7160
1133  6770
1132  7140
1131  6825
1130  6795
1129  6900
1128  6525
1127  6545
1126  6775
1125  6430
1124  6905
1123  6525
1122  6770
1121  6955
1120  6680
1119  6760
1118  7070
1117  6795
1116  6325
1115  6505
1114  6505
1113  6810
1112  6515
1111  6460
1110  6635
1109  6410
1108  6285
1107  6325
1106  6425
1105  6350
1104  6610
1103  6375
1102  6305
1101  6065
1100  5975
1099  6395
1098  6370
1097  6340
1096  6525
1095  5770
1094  6110
1093  6295
1092  6470
1091  6460
1090  6445
1089  6305
1088  6245
1087  6165
1086  6125
1085  6055
1084  6060
1083  5940
1082  6010
1081  5915
1080  6080
1079  6025
1078  6145
1077  5850
1076  5840
1075  5795
1074  5875
1073  5870
1072  6045
1071  5885
1070  5815
1069  5875
1068  5420
1067  5855
1066  5440
1065  5835
1064  5825
1063  5280
1062  5465
1061  5905
1060  5740
1059  5730
1058  5770
1057  5675
1056  5720
1055  5665
1054  5880
1053  5925
1052  5645
1051  5600
1050  5580
1049  5875
1048  5505
1047  5785
1046  5760
1045  5500
1044  5645
1043  5505
1042  5590
1041  5620
1040  5435
1039  5340
1038  5430
1037  5260
1036  5005
1035  5625
1034  5290
1033  5115
1032  5355
1031  5225
1030  5110
1029  5140
1028  5175
1027  4980
1026  5250
1025  5310
1024  5315
1023  5335
1022  5150
1021  5260
1020  5305
1019  5225
1018  4960
1017  5335
1016  5630
1015  5185
1014  4940
1013  5015
1012  5105
1011  5040
1010  5275
1009  5160
1008  5035
1007  5340
1006  5140
1005  5395
1004  5215
1003  5160
1002  5170
1001  5110
1000  5080
999  5245
998  5180
997  5010
996  4950
995  4865
994  4940
993  5285
992  5190
991  5280
990  4785
989  5105
988  5020
987  5255
986  4965
985  5070
984  4985
983  4995
982  5045
981  5285
980  5080
979  4985
978  5210
977  4875
976  5130
975  5075
974  4950
973  4890
972  5010
971  5035
970  4930
969  4810
968  5115
967  4965
966  4920
965  4580
964  4865
963  5150
962  4970
961  4880
960  5165
959  5050
958  5070
957  4880
956  4780
955  4980
954  4895
953  4665
952  4870
951  4775
950  4835
949  4940
948  4805
947  4860
946  4870
945  4805
944  4770
943  4860
942  4680
941  4995
940  4860
939  4785
938  4750
937  4990
936  4960
935  5215
934  5235
933  5050
932  4570
931  4810
930  4750
929  4785
928  4785
927  4740
926  4565
925  4735
924  4675
923  4940
922  4815
921  4930
920  4880
919  4540
918  4680
917  4405
916  4670
915  4850
914  4770
913  4980
912  4990
911  4915
910  4490
909  4810
908  4680
907  5140
906  4695
905  4960
904  4845
903  4860
902  4745
901  4475
900  5065
899  5105
898  4945
897  4535
896  4715
895  4795
894  5015
893  4835
892  4700
891  4810
890  4780
889  4645
888  4920
887  4905
886  4500
885  4775
884  4865
883  4620
882  4890
881  4755
880  4840
879  4800
878  4260
877  4675
876  4580
875  4645
874  4805
873  4635
872  4690
871  4725
870  4720
869  4940
868  4745
867  4305
866  4480
865  4635
864  4580
863  4535
862  4440
861  4890
860  4645
859  4845
858  4600
857  4850
856  4640
855  4540
854  4960
853  4520
852  4795
851  4795
850  4915
849  4785
848  4810
847  4635
846  4870
845  4535
844  4490
843  4905
842  4545
841  4885
840  4680
839  4655
838  4775
837  4840
836  4770
835  4590
834  4835
833  4905
832  4540
831  4650
830  4915
829  4725
828  4795
827  4745
826  4585
825  4820
824  4965
823  4890
822  4710
821  4460
820  4780
819  4970
818  5020
817  5065
816  4480
815  5005
814  4970
813  5045
812  4575
811  4755
810  4865
809  4730
808  5200
807  4765
806  4715
805  4860
804  4940
803  5260
802  4890
801  4785
800  4735
799  4750
798  4805
797  4965
796  4815
795  4875
794  4710
793  5165
792  5055
791  4795
790  5010
789  4800
788  4845
787  4995
786  5005
785  4910
784  4935
783  4945
782  5095
781  5255
780  5100
779  4825
778  4885
777  5230
776  5070
775  5260
774  5220
773  5200
772  4570
771  4965
770  4885
769  5175
768  5410
767  5175
766  5070
765  5095
764  5335
763  5505
762  5490
761  5460
760  5235
759  5210
758  5360
757  5085
756  5075
755  4875
754  5095
753  5130
752  5270
751  5095
750  4955
749  4850
748  5070
747  5175
746  4900
745  5110
744  4545
743  4655
742  4910
741  5025
740  4885
739  4685
738  4900
737  4765
736  5120
735  4810
734  4915
733  5215
732  4740
731  5395
730  5100
729  5120
728  5075
727  4615
726  4820
725  4830
724  4740
723  4910
722  5050
721  4790
720  4930
719  4855
718  5115
717  4960
716  4865
715  4635
714  5045
713  5055
712  5045
711  4840
710  5155
709  5345
708  5065
707  4880
706  5055
705  4965
704  4790
703  5220
702  4815
701  4995
700  4925
699  5050
698  4820
697  4910
696  4905
695  5075
694  5060
693  4930
692  5130
691  4960
690  5145
689  4960
688  5095
687  5180
686  4985
685  4865
684  5135
683  5215
682  4960
681  5075
680  5280
679  5040
678  5035
677  5120
676  5145
675  5195
674  5195
673  5070
672  4950
671  5135
670  5250
669  5100
668  5095
667  5205
666  5310
665  4895
664  5165
663  5230
662  4920
661  5425
660  4895
659  5315
658  5280
657  5060
656  5315
655  5220
654  5110
653  5370
652  5560
651  5215
650  5505
649  5255
648  5185
647  5440
646  5805
645  5790
644  5630
643  5690
642  6120
641  5880
640  5680
639  5570
638  5210
637  5490
636  5350
635  5175
634  5555
633  5550
632  5235
631  5555
630  5030
629  5335
628  5300
627  5305
626  5295
625  5095
624  5190
623  5275
622  5165
621  5070
620  5365
619  5245
618  5255
617  5510
616  5360
615  5380
614  5085
613  5560
612  5200
611  5310
610  5255
609  5380
608  5365
607  5275
606  5310
605  5565
604  5255
603  5115
602  5295
601  5280
600  5345
599  5565
598  5115
597  5365
596  5275
595  5400
594  5310
593  5535
592  5295
591  5250
590  5350
589  5355
588  5685
587  5310
586  5620
585  5770
584  5340
583  5340
582  5885
581  5850
580  5340
579  5490
578  5375
577  5625
576  5605
575  5635
574  5380
573  5745
572  5905
571  6005
570  5610
569  5490
568  5800
567  5580
566  5595
565  5480
564  5655
563  5915
562  6015
561  5625
560  5950
559  5860
558  6040
557  6000
556  5740
555  5970
554  6405
553  6285
552  5955
551  6290
550  6665
549  7280
548  8100
547  8175
546  8530
545  8065
544  7355
543  6875
542  6440
541  5890
540  5940
539  5950
538  5875
537  5700
536  5590
535  5790
534  5645
533  5460
532  5220
531  5515
530  5265
529  5145
528  5370
527  5030
526  5090
525  5260
524  4975
523  5095
522  5370
521  5530
520  4955
519  5210
518  5265
517  5115
516  5220
515  5220
514  5485
513  5295
512  5060
511  5315
510  5250
509  5270
508  5255
507  5455
506  5160
505  5275
504  5210
503  5370
502  5265
501  5200
500  5380
499  5285
498  5345
497  5400
496  5100
495  5605
494  5230
493  5200
492  5170
491  5390
490  5080
489  5475
488  5250
487  5450
486  5285
485  5335
484  5255
483  5465
482  5410
481  5725
480  5235
479  5430
478  5345
477  5570
476  5505
475  5495
474  5495
473  5100
472  5630
471  5310
470  5485
469  5410
468  5530
467  5505
466  5620
465  5620
464  5475
463  5395
462  5535
461  5525
460  5455
459  5415
458  5595
457  5920
456  5695
455  5720
454  5735
453  5605
452  5805
451  5825
450  5520
449  5545
448  5770
447  5640
446  5655
445  5775
444  5715
443  5715
442  5515
441  5675
440  5655
439  6150
438  5810
437  5995
436  5885
435  5660
434  5665
433  5750
432  5835
431  6265
430  6255
429  5900
428  5920
427  5910
426  6035
425  5720
424  6055
423  6015
422  5980
421  6015
420  6360
419  5850
418  5925
417  5940
416  6565
415  5870
414  6070
413  5880
412  5925
411  6305
410  6225
409  6000
408  6360
407  6175
406  6160
405  6530
404  6140
403  6165
402  6460
401  6360
400  6155
399  6380
398  6255
397  6500
396  6220
395  6430
394  6435
393  6550
392  6460
391  6565
390  6520
389  6520
388  6665
387  6435
386  6420
385  6465
384  6890
383  6460
382  6710
381  6410
380  6590
379  6635
378  6550
377  6645
376  6545
375  6795
374  6945
373  6980
372  6845
371  6850
370  6960
369  6890
368  6565
367  6970
366  7020
365  6865
364  6765
363  7045
362  7025
361  7425
360  7440
359  7760
358  8225
357  8230
356  9195
355  10605
354  11835
353  11965
352  10665
351  9545
350  8370
349  8000
348  7445
347  7275
346  7230
345  7035
344  6900
343  7385
342  7315
341  7405
340  7400
339  8420
338  9405
337  11025
336  13440
335  13265
334  11745
333  10170
332  7790
331  6430
330  6155
329  5535
328  5220
327  5260
326  5390
325  5195
324  5175
323  4675
322  4790
321  4520
320  4470
319  4280
318  4110
317  3915
316  3950
315  4070
314  4175
313  3905
312  3915
311  3715
310  4090
309  3915
308  4110
307  4155
306  3945
305  4015
304  3715
303  4015
302  4080
301  3785
300  3680
299  3765
298  3595
297  3900
296  3915
295  3855
294  3810
293  3875
292  3760
291  3645
290  3890
289  3690
288  3910
287  3855
286  4265
285  3955
284  3970
283  4010
282  4055
281  3905
280  3745
279  3875
278  3910
277  3835
276  3840
275  3980
274  3860
273  3905
272  4035
271  4035
270  3890
269  4060
268  3855
267  4000
266  4005
265  4120
264  3935
263  4055
262  3810
261  3945
260  3800
259  3845
258  3940
257  3700
256  4110
255  3755
254  3685
253  3930
252  4090
251  3915
250  3605
249  3765
248  3950
247  3740
246  3925
245  3725
244  3665
243  4030
242  4025
241  3965
240  3815
239  4100
238  4300
237  4045
236  4065
235  3655
234  4065
233  4020
232  3860
231  3840
230  3745
229  4190
228  4120
227  4085
226  3975
225  3665
224  4155
223  3925
222  3745
221  4085
220  4005
219  3880
218  4365
217  3975
216  4145
215  3810
214  4145
213  4025
212  3945
211  4215
210  4005
209  3830
208  3775
207  3775
206  4010
205  3915
204  4115
203  3940
202  4280
201  4145
200  4155
199  4120
198  4025
197  4280
196  4200
195  4180
194  4400
193  3885
192  4315
191  4190
190  4010
189  4250
188  4315
187  4385
186  4425
185  4280
184  4270
183  4415
182  4315
181  4130
180  4330
179  4425
178  3925
177  4565
176  4115
175  4470
174  4420
173  4390
172  4200
171  4235
170  4230
169  4310
168  4280
167  4355
166  4420
165  4415
164  4180
163  4435
162  4380
161  4330
160  4555
159  4205
158  4480
157  4220
156  4500
155  4500
154  4285
153  4620
152  4395
151  4155
150  4200
149  4355
148  4385
147  4595
146  4540
145  4510
144  4355
143  4660
142  4470
141  4420
140  4625
139  4705
138  4635
137  4870
136  4700
135  4585
134  4360
133  4820
132  4615
131  4620
130  4615
129  4760
128  4790
127  4815
126  4850
125  4865
124  4685
123  4695
122  5105
121  5005
120  5040
119  5060
118  4810
117  5190
116  5095
115  5150
114  5430
113  5130
112  5205
111  5100
110  5160
109  5285
108  5305
107  4760
106  5215
105  5245
104  4880
103  4845
102  5090
101  5105
100  4930
99  5360
98  5070
97  4995
96  4990
95  5535
94  5425
93  5425
92  5605
91  5720
90  6645
89  12935
88  20585
87  14830
86  10095
85  18110
84  22930
83  11765
82  5090
81  3650
80  3310
79  3820
78  3890
77  3520
76  3700
75  4320
74  4215
73  3745
72  3065
71  2560
70  2310
69  2180
68  2445
67  2250
66  2505
65  2495
64  2345
63  2205
62  2435
61  2580
60  2620
59  2785
58  2990
57  2730
56  2350
55  2345
54  2135
53  2425
52  2195
51  2115
50  2055
49  2000
48  1995
47  2195
46  2030
45  2050
44  1790
43  1815
42  1885
41  1905
40  2015
39  1915
38  1815
37  1745
36  1775
35  1815
34  1795
33  1815
32  2025
31  1865
30  1950
29  1665
28  1735
27  2040
26  1845
25  1795
24  1825
23  1925
22  1930
21  2000
20  1975
19  1925
18  1900
17  1955
16  2010
15  2165
14  2050
13  1945
12  1990
11  1825
10  1795
9  2135
8  2890
7  3180
6  3430
5  3155
4  3615
3  3390
2  2710
1  1875
-2.2737368e-013  1705
-1  1560
-2  1555
-3  1615
-4  1505

# Region:            Ba 3d
# Acquisition Date:  05/21/21 17:11:55 UTC
# Analysis Method:   XPS
# Analyzer:          Phoibos 100 R6
# Analyzer Lens:     LargeArea:1.5kV
# Analyzer Slit:     1:0.2x20\B:open
# Scan Mode:         FixedAnalyzerTransmission
# Curves/Scan:       1
# Values/Curve:      81
# Dwell Time:        0.8
# Excitation Energy: 1486.61
# Binding Energy:    784
# Pass Energy:       30
# Bias Voltage:      90
# Detector Voltage:  2400
# Eff. Workfunction: 4.309
# Source:            X-Ray Dummy
# Comment:           
#
# Cycle: 0
# Number of Scans: 2
#
# Cycle: 0, Curve: 0
# Acquisition Date: 05/21/21 17:11:55 UTC
#
# ColumnLabels: energy counts/s
#
784  5876.25
783.9  5675.625
783.8  5719.375
783.7  5606.875
783.6  5790
783.5  5773.125
783.4  5728.75
783.3  5705
783.2  5741.875
783.1  5741.25
783  5676.25
782.9  5664.375
782.8  5733.125
782.7  5763.125
782.6  5737.5
782.5  5755.625
782.4  5781.875
782.3  5731.25
782.2  5782.5
782.1  5744.375
782  5631.875
781.9  5702.5
781.8  5760.625
781.7  5616.875
781.6  5713.75
781.5  5751.25
781.4  5644.375
781.3  5695
781.2  5773.125
781.1  5726.875
781  5666.875
780.9  5759.375
780.8  5842.5
780.7  5753.125
780.6  5766.875
780.5  5680
780.4  5569.375
780.3  5676.875
780.2  5714.375
780.1  5687.5
780  5703.125
779.9  5720
779.8  5670
779.7  5775
779.6  5664.375
779.5  5725
779.4  5699.375
779.3  5678.125
779.2  5738.75
779.1  5637.5
779  5771.875
778.9  5711.875
778.8  5708.75
778.7  5661.875
778.6  5843.75
778.5  5769.375
778.4  5715
778.3  5643.125
778.2  5730
778.1  5689.375
778  5752.5
777.9  5643.125
777.8  5733.75
777.7  5712.5
777.6  5698.125
777.5  5595
777.4  5750
777.3  5615.625
777.2  5697.5
777.1  5666.875
777  5662.5
776.9  5755.625
776.8  5686.25
776.7  5750.625
776.6  5713.125
776.5  5696.25
776.4  5754.375
776.3  5662.5
776.2  5783.125
776.1  5643.125
776  5785

# Region:            Cl 2p
# Acquisition Date:  05/21/21 17:01:58 UTC
# Analysis Method:   XPS
# Analyzer:          Phoibos 100 R6
# Analyzer Lens:     LargeArea:1.5kV
# Analyzer Slit:     1:0.2x20\B:open
# Scan Mode:         FixedAnalyzerTransmission
# Curves/Scan:       1
# Values/Curve:      91
# Dwell Time:        0.8
# Excitation Energy: 1486.61
# Binding Energy:    204
# Pass Energy:       30
# Bias Voltage:      90
# Detector Voltage:  2400
# Eff. Workfunction: 4.309
# Source:            X-Ray Dummy
# Comment:           
#
# Cycle: 0
# Number of Scans: 1
#
# Cycle: 0, Curve: 0
# Acquisition Date: 05/21/21 17:01:58 UTC
#
# ColumnLabels: energy counts/s
#
204  2668.75
203.9  2551.25
203.8  2590
203.7  2711.25
203.6  2673.75
203.5  2626.25
203.4  2573.75
203.3  2655
203.2  2655
203.1  2681.25
203  2581.25
202.9  2508.75
202.8  2598.75
202.7  2655
202.6  2667.5
202.5  2592.5
202.4  2703.75
202.3  2585
202.2  2718.75
202.1  2677.5
202  2655
201.9  2650
201.8  2716.25
201.7  2606.25
201.6  2677.5
201.5  2565
201.4  2706.25
201.3  2612.5
201.2  2570
201.1  2636.25
201  2588.75
200.9  2575
200.8  2677.5
200.7  2645
200.6  2683.75
200.5  2628.75
200.4  2696.25
200.3  2681.25
200.2  2657.5
200.1  2608.75
200  2693.75
199.9  2597.5
199.8  2680
199.7  2717.5
199.6  2683.75
199.5  2610
199.4  2580
199.3  2535
199.2  2630
199.1  2703.75
199  2732.5
198.9  2650
198.8  2611.25
198.7  2700
198.6  2697.5
198.5  2617.5
198.4  2590
198.3  2613.75
198.2  2608.75
198.1  2627.5
198  2706.25
197.9  2642.5
197.8  2573.75
197.7  2616.25
197.6  2686.25
197.5  2657.5
197.4  2611.25
197.3  2636.25
197.2  2508.75
197.1  2786.25
197  2566.25
196.9  2615
196.8  2621.25
196.7  2720
196.6  2665
196.5  2705
196.4  2601.25
196.3  2680
196.2  2655
196.1  2698.75
196  2697.5
195.9  2568.75
195.8  2715
195.7  2640
195.6  2677.5
195.5  2637.5
195.4  2558.75
195.3  2663.75
195.2  2662.5
195.1  2598.75
195  2630

# Region:            Au 4f
# Acquisition Date:  05/21/21 17:04:01 UTC
# Analysis Method:   XPS
# Analyzer:          Phoibos 100 R6
# Analyzer Lens:     LargeArea:1.5kV
# Analyzer Slit:     1:0.2x20\B:open
# Scan Mode:         FixedAnalyzerTransmission
# Curves/Scan:       1
# Values/Curve:      151
# Dwell Time:        0.8
# Excitation Energy: 1486.61
# Binding Energy:    95
# Pass Energy:       30
# Bias Voltage:      90
# Detector Voltage:  2400
# Eff. Workfunction: 4.309
# Source:            X-Ray Dummy
# Comment:           
#
# Cycle: 0
# Number of Scans: 1
#
# Cycle: 0, Curve: 0
# Acquisition Date: 05/21/21 17:04:01 UTC
#
# ColumnLabels: energy counts/s
#
95  3275
94.9  3233.75
94.8  3196.25
94.7  3302.5
94.6  3315
94.5  3258.75
94.4  3283.75
94.3  3305
94.2  3242.5
94.1  3277.5
94  3251.25
93.9  3341.25
93.8  3228.75
93.7  3246.25
93.6  3325
93.5  3260
93.4  3243.75
93.3  3260
93.2  3312.5
93.1  3362.5
93  3307.5
92.9  3426.25
92.8  3206.25
92.7  3271.25
92.6  3270
92.5  3227.5
92.4  3348.75
92.3  3388.75
92.2  3321.25
92.1  3348.75
92  3290
91.9  3390
91.8  3426.25
91.7  3546.25
91.6  3478.75
91.5  3477.5
91.4  3663.75
91.3  3573.75
91.2  3600
91.1  3588.75
91  3626.25
90.9  3631.25
90.8  3721.25
90.7  3798.75
90.6  3806.25
90.5  3826.25
90.4  3840
90.3  3930
90.2  4006.25
90.1  4041.25
90  4151.25
89.9  4301.25
89.8  4517.5
89.7  4526.25
89.6  4821.25
89.5  5153.75
89.4  5540
89.3  5716.25
89.2  6316.25
89.1  6853.75
89  7472.5
88.9  8083.75
88.8  8796.25
88.7  9505
88.6  10451.25
88.5  11366.25
88.4  11898.75
88.3  12760
88.2  13206.25
88.1  13742.5
88  14017.5
87.9  14013.75
87.8  13817.5
87.7  13342.5
87.6  13023.75
87.5  12381.25
87.4  11245
87.3  10621.25
87.2  9626.25
87.1  8905
87  8205
86.9  7280
86.8  6626.25
86.7  6067.5
86.6  5737.5
86.5  5410
86.4  5192.5
86.3  5078.75
86.2  5047.5
86.1  5037.5
86  5116.25
85.9  5653.75
85.8  5693.75
85.7  6148.75
85.6  6413.75
85.5  6981.25
85.4  7552.5
85.3  8423.75
85.2  9187.5
85.1  10042.5
85  10760
84.9  12227.5
84.8  13227.5
84.7  14202.5
84.6  15023.75
84.5  15826.25
84.4  16171.25
84.3  16267.5
84.2  16198.75
84.1  15711.25
84  15270
83.9  14955
83.8  13665
83.7  12603.75
83.6  11372.5
83.5  10092.5
83.4  8651.25
83.3  7611.25
83.2  6832.5
83.1  5848.75
83  5296.25
82.9  4567.5
82.8  4131.25
82.7  3706.25
82.6  3480
82.5  3150
82.4  3010
82.3  2812.5
82.2  2932.5
82.1  2588.75
82  2481.25
81.9  2366.25
81.8  2307.5
81.7  2360
81.6  2290
81.5  2338.75
81.4  2260
81.3  2157.5
81.2  2145
81.1  2030
81  2106.25
80.9  2116.25
80.8  2035
80.7  2065
80.6  2051.25
80.5  1930
80.4  2008.75
80.3  1900
80.2  1963.75
80.1  1978.75
80  1978.75

