# Created by:        SpecsLab Prodigy, Version 4.60.2-r85849 
#
# XY-Serializer Export Settings:
#   Comment Prefix:           #
#   Output meta data:         yes
#   Energy Axis:              Binding Energy
#   Count Rate:               Counts per Second
#   Separate Scan Data:       no
#   Separate Channel Data:    no
#   External Channel Data:    yes
#   Transmission Function:    no
#   ErrorBar:                 no
#   Operation Results:        yes
#   Time Zone Format:         UTC
#
# Group:             20210507_Au111_clean
#
# Region:            Ba 3d
# Acquisition Date:  05/23/21 14:58:30 UTC
# Analysis Method:   XPS
# Analyzer:          Phoibos 100 R6
# Analyzer Lens:     LargeArea:1.5kV
# Analyzer Slit:     1:0.2x20\B:open
# Scan Mode:         FixedAnalyzerTransmission
# Curves/Scan:       1
# Values/Curve:      81
# Dwell Time:        0.8
# Excitation Energy: 1486.61
# Binding Energy:    784
# Pass Energy:       30
# Bias Voltage:      90
# Detector Voltage:  2400
# Eff. Workfunction: 4.309
# Source:            X-Ray Dummy
# Comment:           
#
# Cycle: 0
# Number of Scans: 40
#
# Cycle: 0, Curve: 0
# Acquisition Date: 05/23/21 14:58:30 UTC
#
# ColumnLabels: energy counts/s
#
784  5287.8125
783.9  5297.4375
783.8  5309.7188
783.7  5297.875
783.6  5295.5
783.5  5307.9063
783.4  5298.2188
783.3  5303.0938
783.2  5283.875
783.1  5280.5625
783  5291.6563
782.9  5303.8125
782.8  5303.1875
782.7  5296.1563
782.6  5305.875
782.5  5314.2188
782.4  5333.125
782.3  5334.0625
782.2  5343.75
782.1  5338.9688
782  5338.375
781.9  5370.5313
781.8  5354.3125
781.7  5374
781.6  5410.8438
781.5  5374.625
781.4  5392.5
781.3  5418.0938
781.2  5423.3125
781.1  5403.0313
781  5402.875
780.9  5417.2813
780.8  5394.1563
780.7  5399.8125
780.6  5389.5938
780.5  5361.0625
780.4  5387.7188
780.3  5354.125
780.2  5347.6875
780.1  5359.9688
780  5342.5625
779.9  5317.25
779.8  5313.125
779.7  5298.0313
779.6  5292.4063
779.5  5284.25
779.4  5280.125
779.3  5297.3125
779.2  5267.875
779.1  5288.5
779  5277.2188
778.9  5261.125
778.8  5252.9375
778.7  5266.375
778.6  5235.2813
778.5  5263.7188
778.4  5258.4375
778.3  5246.4375
778.2  5260.625
778.1  5245.5313
778  5242.9375
777.9  5245.9375
777.8  5212.875
777.7  5255.6875
777.6  5247.6875
777.5  5235
777.4  5237.5625
777.3  5212.1563
777.2  5232.1563
777.1  5222.9375
777  5246.6563
776.9  5218.2188
776.8  5262.7813
776.7  5233.0625
776.6  5250.8125
776.5  5215.625
776.4  5219.125
776.3  5212.625
776.2  5217.3125
776.1  5217.625
776  5227.0625

# Region:            O 1s
# Acquisition Date:  05/23/21 17:36:24 UTC
# Analysis Method:   XPS
# Analyzer:          Phoibos 100 R6
# Analyzer Lens:     LargeArea:1.5kV
# Analyzer Slit:     1:0.2x20\B:open
# Scan Mode:         FixedAnalyzerTransmission
# Curves/Scan:       1
# Values/Curve:      351
# Dwell Time:        0.8
# Excitation Energy: 1486.61
# Binding Energy:    560
# Pass Energy:       30
# Bias Voltage:      90
# Detector Voltage:  2400
# Eff. Workfunction: 4.309
# Source:            X-Ray Dummy
# Comment:           
#
# Cycle: 0
# Number of Scans: 65
#
# Cycle: 0, Curve: 0
# Acquisition Date: 05/23/21 17:36:24 UTC
#
# ColumnLabels: energy counts/s
#
560  4603.2115
559.9  4608.9808
559.8  4589.7115
559.7  4605.2308
559.6  4596.8846
559.5  4600.9808
559.4  4601.3462
559.3  4595.9615
559.2  4590.7308
559.1  4601.5577
559  4610.5
558.9  4615.4615
558.8  4582.1731
558.7  4605.9808
558.6  4604.2692
558.5  4606.4423
558.4  4592.6346
558.3  4595.6538
558.2  4603.4423
558.1  4602.3654
558  4612.9038
557.9  4583.8462
557.8  4585.8077
557.7  4590.5385
557.6  4594.4808
557.5  4611.1154
557.4  4614.6731
557.3  4607.5769
557.2  4597.7885
557.1  4619.4808
557  4603.3269
556.9  4605.9423
556.8  4609.7115
556.7  4618.25
556.6  4594.1154
556.5  4613.3846
556.4  4616.6346
556.3  4618.5962
556.2  4613.0769
556.1  4614.75
556  4620.4423
555.9  4622.9038
555.8  4625.7308
555.7  4620.7692
555.6  4621.7885
555.5  4625.1538
555.4  4630.3654
555.3  4636.0962
555.2  4624.1731
555.1  4644.25
555  4631.7308
554.9  4629.7692
554.8  4646.8654
554.7  4644.1346
554.6  4655.1731
554.5  4640.8077
554.4  4649.5962
554.3  4639.3654
554.2  4659.7115
554.1  4666.3462
554  4659.8077
553.9  4673.5192
553.8  4675.3077
553.7  4697.6538
553.6  4695.0577
553.5  4697.6923
553.4  4701.4038
553.3  4686.6923
553.2  4704.8846
553.1  4711.75
553  4705.3269
552.9  4735.3846
552.8  4712.9231
552.7  4742.5192
552.6  4745.6923
552.5  4746.75
552.4  4755.0769
552.3  4769.4423
552.2  4787.0192
552.1  4770.3846
552  4798.0192
551.9  4799.6346
551.8  4824.7692
551.7  4825.8077
551.6  4849.1346
551.5  4852.7308
551.4  4843.4231
551.3  4867.4038
551.2  4871.6346
551.1  4903.7308
551  4928.0192
550.9  4942.5962
550.8  4955.0385
550.7  4963.9808
550.6  4992.9423
550.5  4998.3269
550.4  4999.8077
550.3  5013.3654
550.2  5054.2885
550.1  5080.25
550  5069.3846
549.9  5122.1538
549.8  5136.8654
549.7  5157.6731
549.6  5197.3654
549.5  5192.5769
549.4  5235.9615
549.3  5255.0385
549.2  5299.5192
549.1  5310.5962
549  5328
548.9  5374.4808
548.8  5406.8077
548.7  5429.7115
548.6  5463.8462
548.5  5493.9038
548.4  5520.4615
548.3  5558.6346
548.2  5597.4615
548.1  5613.0192
548  5636.0962
547.9  5675.9808
547.8  5705.0769
547.7  5715.0577
547.6  5756.5769
547.5  5799.8654
547.4  5799.2308
547.3  5831.5769
547.2  5820.9038
547.1  5844.1923
547  5860.75
546.9  5880.0769
546.8  5887.0577
546.7  5867.2115
546.6  5875.7115
546.5  5883.1154
546.4  5866.75
546.3  5842.4808
546.2  5825.2115
546.1  5808.2115
546  5786.5385
545.9  5784.9808
545.8  5741.1923
545.7  5708.2692
545.6  5703.3077
545.5  5642.0385
545.4  5602.9231
545.3  5597.0577
545.2  5561.0192
545.1  5504.8077
545  5487.0769
544.9  5432.4808
544.8  5393.25
544.7  5370.0962
544.6  5321.2115
544.5  5280.1731
544.4  5244.4038
544.3  5215.5385
544.2  5170.1731
544.1  5131.3269
544  5114.1538
543.9  5065.8846
543.8  5036.8846
543.7  5007.3654
543.6  4981.8269
543.5  4953.25
543.4  4920.0769
543.3  4905
543.2  4871.8846
543.1  4828.6923
543  4825.8846
542.9  4791.1538
542.8  4767.4423
542.7  4770.6154
542.6  4726.6923
542.5  4713.1731
542.4  4666.5385
542.3  4665.75
542.2  4655.9808
542.1  4648.9231
542  4620.9423
541.9  4612.8462
541.8  4604.9615
541.7  4570.0577
541.6  4571.6154
541.5  4555.3077
541.4  4528.4231
541.3  4523.5385
541.2  4504.0385
541.1  4485.5192
541  4497.1346
540.9  4475.9423
540.8  4480.1731
540.7  4450.2308
540.6  4451.3462
540.5  4437.0192
540.4  4411.3654
540.3  4423.25
540.2  4425.3269
540.1  4407.9038
540  4385.1923
539.9  4398.9423
539.8  4386.5769
539.7  4375.6731
539.6  4373.0385
539.5  4365.2885
539.4  4369.3462
539.3  4371.9808
539.2  4354.8269
539.1  4353.0385
539  4361.6154
538.9  4338.0577
538.8  4336.1538
538.7  4338.7692
538.6  4337.25
538.5  4330.7115
538.4  4338.5192
538.3  4313.4423
538.2  4337.2115
538.1  4331.0962
538  4322.4423
537.9  4315.9038
537.8  4318.6346
537.7  4319.3654
537.6  4330.3269
537.5  4315.8077
537.4  4306.3462
537.3  4316.5962
537.2  4311.5192
537.1  4298.8077
537  4310.5
536.9  4302.0385
536.8  4311.2692
536.7  4286.0192
536.6  4321.3654
536.5  4313.5577
536.4  4292.1346
536.3  4299.8077
536.2  4298.4423
536.1  4305.3462
536  4283.5962
535.9  4289.6154
535.8  4294.5577
535.7  4288.3077
535.6  4306.8269
535.5  4305.5385
535.4  4313.7885
535.3  4302.1731
535.2  4305.8269
535.1  4318.3462
535  4319.75
534.9  4338.8077
534.8  4344.7115
534.7  4361.6154
534.6  4373.4038
534.5  4376.0192
534.4  4410.0962
534.3  4417.1731
534.2  4439.8846
534.1  4451.5192
534  4468.7308
533.9  4463.5385
533.8  4484.4808
533.7  4482.1923
533.6  4476.6346
533.5  4504.9615
533.4  4497.5385
533.3  4499.1346
533.2  4484.6538
533.1  4468.6538
533  4455.4038
532.9  4430.25
532.8  4419.8846
532.7  4392.9231
532.6  4366.0192
532.5  4356.9808
532.4  4326.5769
532.3  4326.1923
532.2  4306.5385
532.1  4279.6923
532  4276.1154
531.9  4283.5192
531.8  4242.6154
531.7  4248.2885
531.6  4230
531.5  4234.9615
531.4  4216.7692
531.3  4218.3269
531.2  4211.9423
531.1  4211.5577
531  4192.7885
530.9  4196.5
530.8  4185.9038
530.7  4145.3269
530.6  4153.6346
530.5  4143.4808
530.4  4126.8077
530.3  4122.1346
530.2  4097.9615
530.1  4110.7692
530  4085.2115
529.9  4067.3269
529.8  4071.1731
529.7  4076.5
529.6  4051.25
529.5  4043.5192
529.4  4036.1346
529.3  4046.7308
529.2  4040.7308
529.1  4034.5577
529  4031.25
528.9  4030.9423
528.8  4031.3269
528.7  4032.4231
528.6  4022.6731
528.5  4033.2692
528.4  4029.5
528.3  4013.1923
528.2  4005.5769
528.1  4029.8846
528  4015.5769
527.9  4028.5385
527.8  4024.2885
527.7  4009.1154
527.6  4013.5385
527.5  4005.9231
527.4  4003.4038
527.3  4018.7692
527.2  4018.1154
527.1  4011.4038
527  4006.0192
526.9  3988.1923
526.8  4007.9423
526.7  3977.7885
526.6  3988.9038
526.5  3988.6538
526.4  3999.25
526.3  4002.25
526.2  3984.2308
526.1  4005.1154
526  4002.2115
525.9  3995.5577
525.8  4005.8846
525.7  3995.3654
525.6  3982.7115
525.5  3996.1346
525.4  3995.0769
525.3  4003.0577
525.2  3999.6731
525.1  3995.2885
525  3983.6923

# Region:            N 1s
# Acquisition Date:  05/23/21 17:58:20 UTC
# Analysis Method:   XPS
# Analyzer:          Phoibos 100 R6
# Analyzer Lens:     LargeArea:1.5kV
# Analyzer Slit:     1:0.2x20\B:open
# Scan Mode:         FixedAnalyzerTransmission
# Curves/Scan:       1
# Values/Curve:      101
# Dwell Time:        0.8
# Excitation Energy: 1486.61
# Binding Energy:    405
# Pass Energy:       30
# Bias Voltage:      90
# Detector Voltage:  2400
# Eff. Workfunction: 4.309
# Source:            X-Ray Dummy
# Comment:           
#
# Cycle: 0
# Number of Scans: 80
#
# Cycle: 0, Curve: 0
# Acquisition Date: 05/23/21 17:58:20 UTC
#
# ColumnLabels: energy counts/s
#
405  4344.5313
404.9  4348.1563
404.8  4359.375
404.7  4355.6094
404.6  4348.2813
404.5  4361.5156
404.4  4361.2188
404.3  4355.7344
404.2  4353.7969
404.1  4350.6406
404  4352.3125
403.9  4380.7344
403.8  4371.2813
403.7  4359.5
403.6  4380.6719
403.5  4366.1406
403.4  4372.25
403.3  4377.7969
403.2  4388.7344
403.1  4376.3125
403  4377.9063
402.9  4371.2031
402.8  4405.8906
402.7  4394.9219
402.6  4391.6563
402.5  4411.2188
402.4  4410.7813
402.3  4419.7813
402.2  4421.4219
402.1  4430.8125
402  4436.6719
401.9  4442.5781
401.8  4450.0625
401.7  4449.4375
401.6  4450.8125
401.5  4457.3125
401.4  4452.8281
401.3  4455.5313
401.2  4450.4063
401.1  4459.4219
401  4469.6563
400.9  4448.2344
400.8  4453.625
400.7  4453.5
400.6  4463.5313
400.5  4458.4844
400.4  4463.6094
400.3  4449.9844
400.2  4458.375
400.1  4452.6719
400  4437.4219
399.9  4430.6719
399.8  4442.4219
399.7  4436.2031
399.6  4453.0625
399.5  4454.7031
399.4  4439.1406
399.3  4456.7969
399.2  4447.5469
399.1  4427.9531
399  4440.7344
398.9  4421.1875
398.8  4431.3281
398.7  4437.8125
398.6  4420.6094
398.5  4406.5156
398.4  4410.9375
398.3  4418.8438
398.2  4403.8594
398.1  4418.2188
398  4413.4844
397.9  4406.5313
397.8  4409.3906
397.7  4382.7344
397.6  4391.0469
397.5  4395.5625
397.4  4392.6719
397.3  4403.4375
397.2  4383.1719
397.1  4390.0156
397  4392.9531
396.9  4397.2969
396.8  4381.3281
396.7  4384.7969
396.6  4407
396.5  4396.5156
396.4  4399.6719
396.3  4386.0938
396.2  4397.6719
396.1  4415.1563
396  4393.6563
395.9  4395.2344
395.8  4395.9844
395.7  4416.4531
395.6  4397.4844
395.5  4403
395.4  4403.7969
395.3  4412.5313
395.2  4415.2188
395.1  4402.8594
395  4417.25

# Region:            C 1s
# Acquisition Date:  05/23/21 11:26:28 UTC
# Analysis Method:   XPS
# Analyzer:          Phoibos 100 R6
# Analyzer Lens:     LargeArea:1.5kV
# Analyzer Slit:     1:0.2x20\B:open
# Scan Mode:         FixedAnalyzerTransmission
# Curves/Scan:       1
# Values/Curve:      151
# Dwell Time:        0.8
# Excitation Energy: 1486.61
# Binding Energy:    295
# Pass Energy:       30
# Bias Voltage:      90
# Detector Voltage:  2400
# Eff. Workfunction: 4.309
# Source:            X-Ray Dummy
# Comment:           
#
# Cycle: 0
# Number of Scans: 10
#
# Cycle: 0, Curve: 0
# Acquisition Date: 05/23/21 11:26:28 UTC
#
# ColumnLabels: energy counts/s
#
295  2520.375
294.9  2530.625
294.8  2532.25
294.7  2522.125
294.6  2527.375
294.5  2521.25
294.4  2568.625
294.3  2552.25
294.2  2557.125
294.1  2517.75
294  2522.5
293.9  2548.875
293.8  2539
293.7  2535.25
293.6  2532.125
293.5  2563.375
293.4  2573.875
293.3  2540.875
293.2  2563.875
293.1  2527.75
293  2546.375
292.9  2532.375
292.8  2521.875
292.7  2517.75
292.6  2526
292.5  2547.5
292.4  2547.125
292.3  2554.375
292.2  2536.875
292.1  2566.5
292  2533.625
291.9  2544.875
291.8  2508.125
291.7  2566.125
291.6  2541.875
291.5  2517.125
291.4  2539.375
291.3  2532.75
291.2  2584.125
291.1  2527.875
291  2582
290.9  2573.5
290.8  2561.125
290.7  2554.625
290.6  2561.5
290.5  2559.25
290.4  2600.125
290.3  2566.875
290.2  2569.125
290.1  2568.75
290  2567.5
289.9  2597.375
289.8  2595.625
289.7  2599.375
289.6  2583.125
289.5  2592.25
289.4  2627.375
289.3  2583.5
289.2  2584.25
289.1  2578.5
289  2626.25
288.9  2607.25
288.8  2616.375
288.7  2652
288.6  2657.625
288.5  2686.125
288.4  2654.75
288.3  2673.625
288.2  2703.375
288.1  2753.375
288  2728.125
287.9  2746.25
287.8  2748.625
287.7  2776.125
287.6  2825.25
287.5  2805.125
287.4  2804
287.3  2853.25
287.2  2873.75
287.1  2877.625
287  2885.375
286.9  2919.875
286.8  2913.625
286.7  2907
286.6  2959
286.5  2941
286.4  2969.75
286.3  2985.25
286.2  2963.625
286.1  2987.375
286  2988.75
285.9  2965.875
285.8  2976.25
285.7  2959.875
285.6  2966.125
285.5  2970.625
285.4  2950.875
285.3  2974
285.2  2891.875
285.1  2904.625
285  2891.625
284.9  2863.125
284.8  2849.875
284.7  2849.75
284.6  2835.625
284.5  2787
284.4  2787.875
284.3  2789.25
284.2  2738.625
284.1  2707.625
284  2705.75
283.9  2637.625
283.8  2655.5
283.7  2649.875
283.6  2597.375
283.5  2609.25
283.4  2648.625
283.3  2615.5
283.2  2661.625
283.1  2591.375
283  2573.625
282.9  2596
282.8  2526.75
282.7  2566.875
282.6  2570.625
282.5  2574.5
282.4  2576.25
282.3  2573.25
282.2  2589.125
282.1  2524
282  2563
281.9  2564.75
281.8  2552.375
281.7  2514.5
281.6  2564.625
281.5  2560
281.4  2528.625
281.3  2515.75
281.2  2533.125
281.1  2538.375
281  2564.875
280.9  2532
280.8  2545.25
280.7  2510.25
280.6  2531.75
280.5  2522.375
280.4  2533.375
280.3  2506.25
280.2  2539.625
280.1  2545.375
280  2537.625

# Region:            overview
# Acquisition Date:  05/23/21 09:47:25 UTC
# Analysis Method:   XPS
# Analyzer:          Phoibos 100 R6
# Analyzer Lens:     MediumArea:1.5kV
# Analyzer Slit:     1:0.2x20\B:open
# Scan Mode:         FixedAnalyzerTransmission
# Curves/Scan:       1
# Values/Curve:      1205
# Dwell Time:        0.2
# Excitation Energy: 1486.61
# Binding Energy:    1200
# Pass Energy:       50
# Bias Voltage:      90
# Detector Voltage:  2400
# Eff. Workfunction: 4.309
# Source:            X-Ray Dummy
# Comment:           
#
# Cycle: 0
# Number of Scans: 1
#
# Cycle: 0, Curve: 0
# Acquisition Date: 05/23/21 09:47:25 UTC
#
# ColumnLabels: energy counts/s
#
1200  7440
1199  7555
1198  7410
1197  7155
1196  7290
1195  7690
1194  7305
1193  7080
1192  7100
1191  7215
1190  7145
1189  7205
1188  6830
1187  7370
1186  6955
1185  7095
1184  6770
1183  6960
1182  6595
1181  6850
1180  6610
1179  6775
1178  6970
1177  6700
1176  6505
1175  6710
1174  6625
1173  6880
1172  6750
1171  6930
1170  6660
1169  6820
1168  6495
1167  6585
1166  6515
1165  6715
1164  6880
1163  6560
1162  6545
1161  6265
1160  6245
1159  6365
1158  6615
1157  6395
1156  6140
1155  6370
1154  6690
1153  6255
1152  6340
1151  6505
1150  6105
1149  6340
1148  6100
1147  6175
1146  6635
1145  6400
1144  6425
1143  6135
1142  6080
1141  6515
1140  5840
1139  6145
1138  6220
1137  5865
1136  5980
1135  6150
1134  6155
1133  5520
1132  6240
1131  5750
1130  6215
1129  5960
1128  5880
1127  5605
1126  6185
1125  5890
1124  5520
1123  5680
1122  5705
1121  5950
1120  6050
1119  5540
1118  5940
1117  5650
1116  5575
1115  5890
1114  5705
1113  5605
1112  6040
1111  5475
1110  5435
1109  5735
1108  5790
1107  5450
1106  5865
1105  5415
1104  5500
1103  5535
1102  5525
1101  5850
1100  5470
1099  5800
1098  5655
1097  5390
1096  5295
1095  5465
1094  5385
1093  5305
1092  5460
1091  5225
1090  5290
1089  5380
1088  5455
1087  5225
1086  5525
1085  5335
1084  5295
1083  5160
1082  5140
1081  5255
1080  5375
1079  5030
1078  4965
1077  4670
1076  5235
1075  5260
1074  5205
1073  5290
1072  5195
1071  5165
1070  5030
1069  5255
1068  4715
1067  4870
1066  5225
1065  5080
1064  5110
1063  5010
1062  5065
1061  4850
1060  5055
1059  5065
1058  5035
1057  5250
1056  4795
1055  5005
1054  5265
1053  4695
1052  4630
1051  4665
1050  5195
1049  5155
1048  4820
1047  5275
1046  5060
1045  5135
1044  4790
1043  4775
1042  4775
1041  4620
1040  4820
1039  5160
1038  4860
1037  5070
1036  4865
1035  4895
1034  4820
1033  4720
1032  4850
1031  4505
1030  4530
1029  4885
1028  4860
1027  4535
1026  4775
1025  4735
1024  4735
1023  4780
1022  4695
1021  4795
1020  5005
1019  4730
1018  4840
1017  4595
1016  4690
1015  4410
1014  4390
1013  4845
1012  4400
1011  4810
1010  4695
1009  4495
1008  4700
1007  4660
1006  4880
1005  4860
1004  4765
1003  4335
1002  4605
1001  4300
1000  4380
999  4880
998  4530
997  4595
996  4165
995  4560
994  4530
993  4390
992  4590
991  4495
990  4575
989  4575
988  4605
987  4435
986  4660
985  4480
984  4780
983  4750
982  4200
981  4580
980  4535
979  4765
978  4495
977  4560
976  4430
975  4575
974  4545
973  4405
972  4235
971  4350
970  4330
969  4445
968  4615
967  4515
966  4260
965  4740
964  4175
963  4345
962  4395
961  4570
960  4185
959  4290
958  4355
957  4310
956  4505
955  4505
954  4365
953  4375
952  4330
951  4250
950  4595
949  4460
948  4425
947  4640
946  4405
945  4580
944  4355
943  4220
942  4500
941  4425
940  4510
939  4345
938  4395
937  4355
936  4475
935  4145
934  4510
933  4110
932  4445
931  4255
930  4355
929  4070
928  4585
927  4425
926  4385
925  4450
924  4245
923  4345
922  4345
921  4355
920  4725
919  4140
918  4125
917  4565
916  4175
915  4450
914  4515
913  4540
912  4275
911  4180
910  4425
909  4340
908  4375
907  4145
906  4335
905  4340
904  4305
903  4245
902  4265
901  4240
900  4120
899  4295
898  4255
897  4430
896  4250
895  4030
894  4385
893  4365
892  4255
891  4250
890  4405
889  4050
888  4205
887  4445
886  4110
885  4160
884  4100
883  4075
882  4350
881  4305
880  4465
879  3965
878  4190
877  4320
876  4135
875  4450
874  4495
873  4455
872  4415
871  4440
870  4065
869  4335
868  4405
867  4745
866  4235
865  4235
864  4365
863  4115
862  4240
861  4265
860  4310
859  4345
858  4055
857  4125
856  4125
855  4150
854  4355
853  4360
852  4140
851  4530
850  4515
849  4420
848  4255
847  4305
846  4330
845  4410
844  4425
843  4480
842  4480
841  4125
840  4135
839  4560
838  4240
837  4520
836  4495
835  4525
834  4295
833  4475
832  4355
831  4500
830  4585
829  4395
828  4345
827  4435
826  4560
825  4085
824  4630
823  4295
822  4450
821  4335
820  4330
819  4405
818  4600
817  4270
816  4680
815  4200
814  4440
813  4405
812  4455
811  4245
810  4385
809  4515
808  4310
807  4265
806  4445
805  4140
804  4440
803  4545
802  4630
801  4460
800  4380
799  4575
798  4265
797  4580
796  4680
795  4655
794  4680
793  4515
792  4465
791  4480
790  4640
789  4560
788  4400
787  4520
786  4505
785  4670
784  4470
783  4590
782  4365
781  4810
780  4630
779  4665
778  4585
777  4625
776  4400
775  4385
774  4155
773  4245
772  4540
771  4675
770  4600
769  4715
768  4845
767  4495
766  4830
765  4520
764  4790
763  4480
762  4655
761  4725
760  4455
759  4590
758  4700
757  4540
756  4750
755  4385
754  4460
753  4460
752  4535
751  4355
750  4560
749  4680
748  4445
747  4410
746  4495
745  4580
744  4115
743  4195
742  4255
741  4205
740  4475
739  4605
738  4490
737  4290
736  4625
735  4805
734  4570
733  4560
732  4710
731  4460
730  4340
729  4555
728  4625
727  4480
726  4655
725  4685
724  4090
723  4565
722  4305
721  4535
720  4550
719  4400
718  4525
717  4565
716  4635
715  4520
714  4175
713  4510
712  4860
711  4705
710  4720
709  4450
708  4925
707  4735
706  4400
705  4400
704  4730
703  4295
702  4335
701  4720
700  4640
699  4500
698  4565
697  4375
696  4795
695  5005
694  4585
693  4425
692  4640
691  4835
690  4960
689  4635
688  4680
687  4660
686  4585
685  4740
684  4675
683  4360
682  4790
681  4785
680  4710
679  4945
678  4860
677  4925
676  4545
675  4685
674  4675
673  4635
672  4435
671  4760
670  4765
669  4620
668  4920
667  4935
666  4635
665  4865
664  4630
663  4865
662  4855
661  4760
660  4655
659  4760
658  4550
657  4665
656  4820
655  4915
654  4740
653  4965
652  4935
651  4940
650  4930
649  4840
648  4775
647  5300
646  4955
645  5425
644  5005
643  5450
642  5040
641  5095
640  5160
639  5185
638  5050
637  4755
636  4940
635  5165
634  4955
633  5055
632  5180
631  4940
630  5085
629  4900
628  4810
627  4925
626  5230
625  4795
624  4540
623  4760
622  4855
621  5085
620  4690
619  4875
618  5035
617  5050
616  4840
615  4775
614  4910
613  4915
612  4885
611  5035
610  4875
609  4760
608  4980
607  4655
606  5060
605  5025
604  4710
603  5045
602  4770
601  4970
600  4840
599  4610
598  5105
597  5020
596  5175
595  4935
594  5195
593  5515
592  4980
591  5025
590  5120
589  5375
588  5235
587  5150
586  5295
585  5175
584  5210
583  5125
582  5115
581  5190
580  5350
579  5100
578  5390
577  5300
576  5375
575  5255
574  5255
573  4990
572  5180
571  5325
570  5460
569  5535
568  5070
567  5405
566  5240
565  5175
564  5545
563  5205
562  5340
561  5430
560  5255
559  5040
558  5600
557  5180
556  5295
555  5540
554  5685
553  5530
552  5525
551  5400
550  6115
549  6240
548  6795
547  6985
546  6850
545  6735
544  6395
543  5625
542  5405
541  5515
540  5130
539  4870
538  5045
537  4945
536  5070
535  5320
534  5435
533  5165
532  5320
531  4895
530  4630
529  4985
528  4860
527  4815
526  4710
525  4605
524  4765
523  4875
522  4780
521  5065
520  5110
519  5010
518  4805
517  4625
516  4770
515  4755
514  4835
513  4655
512  4750
511  4880
510  4820
509  4880
508  4875
507  4890
506  4725
505  5035
504  4965
503  4965
502  4870
501  5125
500  5090
499  5260
498  5010
497  5185
496  4960
495  5065
494  4930
493  4730
492  5085
491  4895
490  5125
489  4895
488  5355
487  5370
486  5230
485  4970
484  4905
483  5365
482  5420
481  4970
480  5235
479  4890
478  5060
477  5080
476  4845
475  5170
474  4890
473  5195
472  4935
471  4935
470  4945
469  5020
468  5055
467  5120
466  5565
465  5185
464  4960
463  5450
462  5125
461  5395
460  5380
459  5025
458  5220
457  5370
456  5035
455  5185
454  5365
453  5140
452  5500
451  5000
450  5300
449  5260
448  5395
447  5250
446  5115
445  5350
444  5440
443  5030
442  5580
441  5430
440  5675
439  5295
438  5600
437  5720
436  5235
435  5690
434  5725
433  5660
432  5490
431  5190
430  5295
429  5440
428  5740
427  5675
426  5570
425  5940
424  5945
423  5380
422  5585
421  5600
420  5570
419  5890
418  5820
417  5715
416  6090
415  5895
414  5835
413  5935
412  5895
411  5705
410  5910
409  6135
408  5790
407  6040
406  5755
405  5945
404  6015
403  5910
402  5770
401  6115
400  6285
399  6150
398  6080
397  5930
396  6000
395  6170
394  6100
393  6005
392  6255
391  5880
390  6235
389  6165
388  6040
387  6405
386  5955
385  6065
384  6095
383  6285
382  6020
381  6300
380  6305
379  6380
378  6290
377  6470
376  6230
375  6370
374  6290
373  5895
372  6720
371  6680
370  6510
369  6600
368  6525
367  6565
366  6655
365  6385
364  6580
363  6630
362  6830
361  6560
360  7010
359  7280
358  7065
357  7540
356  8510
355  8590
354  9290
353  9420
352  8900
351  8145
350  7325
349  6690
348  6290
347  6190
346  5910
345  6300
344  6450
343  6185
342  6230
341  6255
340  6580
339  6895
338  7815
337  9140
336  10180
335  10725
334  9165
333  7425
332  6265
331  5795
330  5100
329  4755
328  4775
327  4645
326  4605
325  4520
324  4420
323  4530
322  4115
321  4020
320  4030
319  3700
318  3985
317  3850
316  3555
315  3670
314  3650
313  3900
312  3710
311  3480
310  3605
309  3610
308  3500
307  3565
306  3650
305  3880
304  3785
303  3640
302  3675
301  3885
300  3435
299  3875
298  3685
297  3730
296  3555
295  3595
294  3610
293  3565
292  3635
291  3610
290  3835
289  3710
288  3750
287  4080
286  4485
285  4115
284  3925
283  3645
282  3445
281  3555
280  3610
279  3550
278  3735
277  3600
276  3670
275  3755
274  3365
273  3710
272  3570
271  3615
270  3730
269  3710
268  3640
267  3760
266  3555
265  3640
264  3675
263  3720
262  3340
261  3750
260  3570
259  3415
258  3530
257  3530
256  3560
255  3665
254  3605
253  3700
252  3550
251  3620
250  3685
249  3675
248  3580
247  3840
246  3625
245  3625
244  3620
243  3535
242  3655
241  3475
240  3920
239  3460
238  3815
237  3695
236  3690
235  3550
234  3590
233  3860
232  3720
231  3430
230  3890
229  3820
228  3735
227  3720
226  3890
225  3705
224  3765
223  3825
222  3565
221  3665
220  3860
219  3600
218  4005
217  3585
216  4015
215  3745
214  3785
213  3975
212  3805
211  3590
210  3640
209  3740
208  3855
207  3645
206  3875
205  3605
204  3810
203  4010
202  3960
201  3515
200  3730
199  4000
198  3715
197  3965
196  3725
195  3925
194  3900
193  3785
192  4235
191  3930
190  4120
189  3785
188  4075
187  3860
186  4060
185  4005
184  3975
183  3785
182  4080
181  3935
180  4175
179  3980
178  3900
177  3895
176  4090
175  3725
174  4060
173  3950
172  4060
171  4325
170  3740
169  4225
168  3695
167  3970
166  4210
165  4115
164  3960
163  4275
162  3885
161  4115
160  4085
159  4285
158  4060
157  4060
156  4165
155  4290
154  4340
153  3980
152  4175
151  4205
150  4330
149  4160
148  4285
147  4245
146  4270
145  4320
144  4235
143  4625
142  4480
141  4160
140  4510
139  4250
138  4410
137  4395
136  4610
135  4515
134  4385
133  4350
132  4745
131  4290
130  4450
129  4305
128  4805
127  4460
126  4580
125  4805
124  4855
123  4805
122  4840
121  4885
120  4850
119  4755
118  4890
117  4695
116  4950
115  4985
114  4705
113  5065
112  5215
111  4955
110  5475
109  4945
108  4740
107  4975
106  4840
105  4750
104  4695
103  4825
102  4385
101  4785
100  4810
99  4655
98  4280
97  4495
96  4500
95  4590
94  4490
93  4445
92  4890
91  4985
90  5875
89  10450
88  15395
87  11065
86  8260
85  14430
84  16545
83  8825
82  3970
81  2950
80  2820
79  3125
78  3335
77  2965
76  3135
75  3350
74  3605
73  2835
72  2605
71  2280
70  2200
69  2025
68  2195
67  2120
66  1970
65  2040
64  2085
63  2115
62  2060
61  2130
60  2140
59  2190
58  2525
57  2240
56  2335
55  2105
54  2185
53  2150
52  1780
51  1855
50  1855
49  1830
48  1845
47  1670
46  1760
45  1660
44  1735
43  1720
42  1735
41  1765
40  1755
39  1720
38  1725
37  1830
36  1720
35  1705
34  1815
33  1875
32  1820
31  1830
30  1845
29  1925
28  1800
27  1895
26  1645
25  1800
24  1835
23  1670
22  1575
21  1670
20  1850
19  1815
18  1670
17  1935
16  1860
15  1640
14  1810
13  2060
12  1615
11  1735
10  1805
9  1725
8  2320
7  2455
6  2770
5  2675
4  2905
3  2935
2  1935
1  1725
-2.2737368e-013  1425
-1  1475
-2  1390
-3  1345
-4  1460

# Region:            Cl 2p
# Acquisition Date:  05/23/21 11:27:42 UTC
# Analysis Method:   XPS
# Analyzer:          Phoibos 100 R6
# Analyzer Lens:     LargeArea:1.5kV
# Analyzer Slit:     1:0.2x20\B:open
# Scan Mode:         FixedAnalyzerTransmission
# Curves/Scan:       1
# Values/Curve:      91
# Dwell Time:        0.8
# Excitation Energy: 1486.61
# Binding Energy:    204
# Pass Energy:       30
# Bias Voltage:      90
# Detector Voltage:  2400
# Eff. Workfunction: 4.309
# Source:            X-Ray Dummy
# Comment:           
#
# Cycle: 0
# Number of Scans: 10
#
# Cycle: 0, Curve: 0
# Acquisition Date: 05/23/21 11:27:42 UTC
#
# ColumnLabels: energy counts/s
#
204  2456.375
203.9  2466.125
203.8  2445.625
203.7  2463.25
203.6  2461.25
203.5  2469.25
203.4  2465.625
203.3  2440.875
203.2  2460.375
203.1  2433.75
203  2462.125
202.9  2452.75
202.8  2437.5
202.7  2472
202.6  2454
202.5  2456.25
202.4  2452
202.3  2461.375
202.2  2443.625
202.1  2464.875
202  2488.25
201.9  2504.5
201.8  2468.125
201.7  2480.125
201.6  2467.125
201.5  2476.75
201.4  2475.375
201.3  2451.125
201.2  2477.25
201.1  2502
201  2482
200.9  2476.75
200.8  2460.75
200.7  2481
200.6  2441.875
200.5  2465.75
200.4  2459.75
200.3  2482.75
200.2  2498.125
200.1  2503.25
200  2436.875
199.9  2496.5
199.8  2482.125
199.7  2506.625
199.6  2505.375
199.5  2452.375
199.4  2483.125
199.3  2472.25
199.2  2492.125
199.1  2446.625
199  2475
198.9  2436.875
198.8  2471.25
198.7  2459.25
198.6  2485.75
198.5  2492.75
198.4  2469.625
198.3  2507
198.2  2452.375
198.1  2493.125
198  2500
197.9  2493.125
197.8  2493.625
197.7  2513.125
197.6  2490.375
197.5  2479.125
197.4  2458.625
197.3  2506.125
197.2  2477.375
197.1  2493.625
197  2453.5
196.9  2438.25
196.8  2507.625
196.7  2487.5
196.6  2505.375
196.5  2505.625
196.4  2496.75
196.3  2519.25
196.2  2528.75
196.1  2486.5
196  2474.5
195.9  2491.875
195.8  2479.5
195.7  2445.875
195.6  2493.125
195.5  2490.125
195.4  2457.375
195.3  2478.75
195.2  2512.5
195.1  2501.875
195  2484

# Region:            Au 4f
# Acquisition Date:  05/23/21 10:03:32 UTC
# Analysis Method:   XPS
# Analyzer:          Phoibos 100 R6
# Analyzer Lens:     LargeArea:1.5kV
# Analyzer Slit:     1:0.2x20\B:open
# Scan Mode:         FixedAnalyzerTransmission
# Curves/Scan:       1
# Values/Curve:      151
# Dwell Time:        0.8
# Excitation Energy: 1486.61
# Binding Energy:    95
# Pass Energy:       30
# Bias Voltage:      90
# Detector Voltage:  2400
# Eff. Workfunction: 4.309
# Source:            X-Ray Dummy
# Comment:           
#
# Cycle: 0
# Number of Scans: 2
#
# Cycle: 0, Curve: 0
# Acquisition Date: 05/23/21 10:03:32 UTC
#
# ColumnLabels: energy counts/s
#
95  2780
94.9  2796.875
94.8  2820.625
94.7  2876.875
94.6  2784.375
94.5  2737.5
94.4  2809.375
94.3  2807.5
94.2  2751.25
94.1  2845
94  2766.875
93.9  2788.125
93.8  2837.5
93.7  2843.75
93.6  2775
93.5  2837.5
93.4  2758.75
93.3  2704.375
93.2  2771.25
93.1  2781.25
93  2834.375
92.9  2769.375
92.8  2778.75
92.7  2771.875
92.6  2716.875
92.5  2784.375
92.4  2831.875
92.3  2834.375
92.2  2785.625
92.1  2846.25
92  2831.875
91.9  2925
91.8  2930.625
91.7  2889.375
91.6  2966.25
91.5  2949.375
91.4  2988.125
91.3  3017.5
91.2  3056.25
91.1  3041.875
91  3050.625
90.9  2991.25
90.8  3124.375
90.7  3249.375
90.6  3156.25
90.5  3215
90.4  3160
90.3  3258.125
90.2  3276.25
90.1  3330
90  3431.875
89.9  3450.625
89.8  3695.625
89.7  3722.5
89.6  3881.25
89.5  4115
89.4  4394.375
89.3  4760
89.2  5011.25
89.1  5430.625
89  5918.125
88.9  6401.875
88.8  6939.375
88.7  7640
88.6  8053.125
88.5  8743.75
88.4  9258.75
88.3  9883.125
88.2  10228.125
88.1  10686.875
88  10836.25
87.9  10665
87.8  10769.375
87.7  10398.75
87.6  10072.5
87.5  9415
87.4  8724.375
87.3  8148.75
87.2  7446.25
87.1  6730
87  6100.625
86.9  5704.375
86.8  5139.375
86.7  4760
86.6  4501.25
86.5  4187.5
86.4  4125.625
86.3  4006.25
86.2  3941.875
86.1  4003.75
86  4099.375
85.9  4267.5
85.8  4499.375
85.7  4747.5
85.6  5114.375
85.5  5462.5
85.4  5975.625
85.3  6561.875
85.2  7184.375
85.1  7831.875
85  8548.75
84.9  9357.5
84.8  10076.875
84.7  10715
84.6  11376.25
84.5  11900.625
84.4  12247.5
84.3  12441.25
84.2  12542.5
84.1  12296.875
84  11855.625
83.9  11103.125
83.8  10240
83.7  9423.75
83.6  8701.25
83.5  7721.875
83.4  6921.25
83.3  5979.375
83.2  5180.625
83.1  4628.75
83  4190
82.9  3612.5
82.8  3295
82.7  2981.25
82.6  2770.625
82.5  2593.75
82.4  2508.125
82.3  2381.875
82.2  2323.75
82.1  2229.375
82  2150.625
81.9  2125
81.8  1992.5
81.7  1988.75
81.6  1954.375
81.5  2000
81.4  1922.5
81.3  1883.125
81.2  1890.625
81.1  1878.125
81  1838.125
80.9  1778.75
80.8  1894.375
80.7  1752.5
80.6  1714.375
80.5  1756.875
80.4  1755
80.3  1723.125
80.2  1738.75
80.1  1719.375
80  1765.625

