# Created by:        SpecsLab Prodigy, Version 4.60.2-r85849 
#
# XY-Serializer Export Settings:
#   Comment Prefix:           #
#   Output meta data:         yes
#   Energy Axis:              Binding Energy
#   Count Rate:               Counts per Second
#   Separate Scan Data:       no
#   Separate Channel Data:    no
#   External Channel Data:    yes
#   Transmission Function:    no
#   ErrorBar:                 no
#   Operation Results:        yes
#   Time Zone Format:         UTC
#
# Group:             Spectrum Group
#
# Region:            Ba3d
# Acquisition Date:  05/21/22 06:16:21 UTC
# Analysis Method:   XPS
# Analyzer:          Phoibos 100 R6
# Analyzer Lens:     LargeArea:1.5kV
# Analyzer Slit:     1:0.2x20\B:open
# Scan Mode:         FixedAnalyzerTransmission
# Curves/Scan:       1
# Values/Curve:      121
# Dwell Time:        0.8
# Excitation Energy: 1486.61
# Binding Energy:    789
# Pass Energy:       30
# Bias Voltage:      90
# Detector Voltage:  2600
# Eff. Workfunction: 4.309
# Source:            X-Ray Dummy
# Comment:           
#
# Cycle: 0
# Number of Scans: 50
#
# Cycle: 0, Curve: 0
# Acquisition Date: 05/21/22 06:16:21 UTC
#
# ColumnLabels: energy counts/s
#
789  1908.025
788.9  1916.225
788.8  1919.025
788.7  1915.3
788.6  1919.275
788.5  1912.775
788.4  1918.3
788.3  1916.775
788.2  1906.925
788.1  1910.125
788  1915.7
787.9  1917.65
787.8  1903.875
787.7  1911.675
787.6  1903.25
787.5  1914.05
787.4  1917.7
787.3  1901.3
787.2  1912.325
787.1  1913.525
787  1903.225
786.9  1899.65
786.8  1909.225
786.7  1921.85
786.6  1913.1
786.5  1917.9
786.4  1918.65
786.3  1922.925
786.2  1926.95
786.1  1932.4
786  1937.975
785.9  1946.4
785.8  1959.725
785.7  1964.325
785.6  1970.1
785.5  1982.25
785.4  1994.175
785.3  2016.625
785.2  2018.925
785.1  2053.025
785  2086.1
784.9  2118.825
784.8  2155.275
784.7  2204.6
784.6  2234.85
784.5  2284.8
784.4  2343.15
784.3  2399
784.2  2490.5
784.1  2562.425
784  2614.925
783.9  2711
783.8  2794.075
783.7  2868.05
783.6  2930.25
783.5  3011.225
783.4  3078.95
783.3  3136.75
783.2  3158.325
783.1  3189.85
783  3215.55
782.9  3215.275
782.8  3206.975
782.7  3177.375
782.6  3126.7
782.5  3067.075
782.4  2995.925
782.3  2917.875
782.2  2841.975
782.1  2762.575
782  2671.725
781.9  2577.525
781.8  2513.05
781.7  2450.1
781.6  2363.3
781.5  2286.75
781.4  2226.9
781.3  2188.225
781.2  2124.075
781.1  2086.975
781  2048.325
780.9  2011.35
780.8  1992
780.7  1952.425
780.6  1954.175
780.5  1930.775
780.4  1907.8
780.3  1898.875
780.2  1898.95
780.1  1872.65
780  1866.95
779.9  1865.5
779.8  1848.7
779.7  1836.55
779.6  1848.65
779.5  1831.75
779.4  1841.05
779.3  1827.025
779.2  1828.1
779.1  1815.575
779  1824
778.9  1807.15
778.8  1814.65
778.7  1826.35
778.6  1799.175
778.5  1806.55
778.4  1806.45
778.3  1803.975
778.2  1806.55
778.1  1796.75
778  1795.375
777.9  1804.15
777.8  1797.475
777.7  1799.7
777.6  1796.675
777.5  1786.025
777.4  1793.05
777.3  1796.625
777.2  1805.475
777.1  1807.225
777  1795.875

# Region:            C1s
# Acquisition Date:  05/21/22 09:16:37 UTC
# Analysis Method:   XPS
# Analyzer:          Phoibos 100 R6
# Analyzer Lens:     LargeArea:1.5kV
# Analyzer Slit:     1:0.2x20\B:open
# Scan Mode:         FixedAnalyzerTransmission
# Curves/Scan:       1
# Values/Curve:      151
# Dwell Time:        0.8
# Excitation Energy: 1486.61
# Binding Energy:    295
# Pass Energy:       30
# Bias Voltage:      90
# Detector Voltage:  2600
# Eff. Workfunction: 4.309
# Source:            X-Ray Dummy
# Comment:           
#
# Cycle: 0
# Number of Scans: 95
#
# Cycle: 0, Curve: 0
# Acquisition Date: 05/21/22 09:16:37 UTC
#
# ColumnLabels: energy counts/s
#
295  571.59211
294.9  562.90789
294.8  561.32895
294.7  565.53947
294.6  567.17105
294.5  569.11842
294.4  564.26316
294.3  560.40789
294.2  564.25
294.1  569.19737
294  561.63158
293.9  568.82895
293.8  566.88158
293.7  558.81579
293.6  563.48684
293.5  565.73684
293.4  567.92105
293.3  564.63158
293.2  568.36842
293.1  568.80263
293  566.06579
292.9  568.48684
292.8  566.27632
292.7  564.11842
292.6  567.18421
292.5  568.02632
292.4  568.39474
292.3  564.55263
292.2  571.40789
292.1  569.26316
292  571.48684
291.9  573.02632
291.8  571.19737
291.7  570.90789
291.6  576.40789
291.5  577.63158
291.4  575.44737
291.3  582.19737
291.2  579.01316
291.1  582.32895
291  586.69737
290.9  583.71053
290.8  586.84211
290.7  583.38158
290.6  586.88158
290.5  590.40789
290.4  591.13158
290.3  592.40789
290.2  596.64474
290.1  597.21053
290  599.28947
289.9  601.26316
289.8  602.68421
289.7  607.18421
289.6  612.60526
289.5  613.84211
289.4  621.85526
289.3  623.77632
289.2  630.38158
289.1  639.77632
289  648.26316
288.9  645.03947
288.8  660.13158
288.7  666.22368
288.6  676.86842
288.5  687.38158
288.4  704.07895
288.3  717.28947
288.2  720.35526
288.1  739.67105
288  751.05263
287.9  762.76316
287.8  769.76316
287.7  788.06579
287.6  801.47368
287.5  811.02632
287.4  816.18421
287.3  825.55263
287.2  820.48684
287.1  823.22368
287  814.59211
286.9  807.84211
286.8  801.52632
286.7  785.25
286.6  773.53947
286.5  756.60526
286.4  738.59211
286.3  725.35526
286.2  706.72368
286.1  689.53947
286  669.48684
285.9  659.39474
285.8  645.46053
285.7  628.11842
285.6  615.35526
285.5  608.75
285.4  602.26316
285.3  599.28947
285.2  587.77632
285.1  582.14474
285  575.64474
284.9  575.09211
284.8  569.32895
284.7  570.92105
284.6  563.25
284.5  568.82895
284.4  562.13158
284.3  562.90789
284.2  561.71053
284.1  559.75
284  557.96053
283.9  559.28947
283.8  554.5
283.7  554.27632
283.6  554.69737
283.5  557.27632
283.4  560.06579
283.3  554.32895
283.2  554.30263
283.1  560.46053
283  551.73684
282.9  556.46053
282.8  560.65789
282.7  555.46053
282.6  559.14474
282.5  562.63158
282.4  559.42105
282.3  563.21053
282.2  564.85526
282.1  561.17105
282  561.90789
281.9  565.17105
281.8  568.81579
281.7  563.18421
281.6  570.53947
281.5  565.65789
281.4  562.67105
281.3  563.32895
281.2  568.73684
281.1  564.64474
281  570.97368
280.9  563.60526
280.8  569.44737
280.7  563.97368
280.6  565.71053
280.5  567.5
280.4  562.94737
280.3  559.26316
280.2  559.64474
280.1  562.25
280  557.92105

# Region:            O1s
# Acquisition Date:  05/20/22 21:34:40 UTC
# Analysis Method:   XPS
# Analyzer:          Phoibos 100 R6
# Analyzer Lens:     LargeArea:1.5kV
# Analyzer Slit:     1:0.2x20\B:open
# Scan Mode:         FixedAnalyzerTransmission
# Curves/Scan:       1
# Values/Curve:      141
# Dwell Time:        0.8
# Excitation Energy: 1486.61
# Binding Energy:    541
# Pass Energy:       30
# Bias Voltage:      90
# Detector Voltage:  2600
# Eff. Workfunction: 4.309
# Source:            X-Ray Dummy
# Comment:           
#
# Cycle: 0
# Number of Scans: 20
#
# Cycle: 0, Curve: 0
# Acquisition Date: 05/20/22 21:34:40 UTC
#
# ColumnLabels: energy counts/s
#
541  914.8125
540.9  915.5
540.8  908.3125
540.7  934.8125
540.6  931
540.5  924.625
540.4  920.125
540.3  928.875
540.2  953.0625
540.1  954.0625
540  953.125
539.9  965.6875
539.8  978.0625
539.7  989.0625
539.6  998
539.5  1002.3125
539.4  1023.9375
539.3  1017.125
539.2  1030
539.1  1038.4375
539  1056.125
538.9  1062.0625
538.8  1080.125
538.7  1090.6875
538.6  1097.5625
538.5  1122.8125
538.4  1133.6875
538.3  1162.1875
538.2  1174.8125
538.1  1191.625
538  1213.5625
537.9  1244.625
537.8  1276.1875
537.7  1309.125
537.6  1371.1875
537.5  1425.5625
537.4  1514.625
537.3  1576
537.2  1700.5625
537.1  1816.9375
537  1951.875
536.9  2119.125
536.8  2310.5625
536.7  2574.6875
536.6  2848.375
536.5  3172.1875
536.4  3512.9375
536.3  3892.625
536.2  4346.9375
536.1  4795
536  5299.25
535.9  5789.125
535.8  6333.75
535.7  6779.125
535.6  7288.625
535.5  7751.8125
535.4  8136.125
535.3  8476.5625
535.2  8693
535.1  8809.625
535  8848.9375
534.9  8704.5625
534.8  8561.4375
534.7  8248.5625
534.6  7928.4375
534.5  7438.5
534.4  6892.125
534.3  6336.625
534.2  5774.75
534.1  5171.6875
534  4652.9375
533.9  4184.5
533.8  3669.5
533.7  3266.125
533.6  2893.875
533.5  2566.75
533.4  2313.125
533.3  2064.5625
533.2  1890
533.1  1723.75
533  1616.125
532.9  1497.375
532.8  1422.5625
532.7  1346.75
532.6  1291
532.5  1251.375
532.4  1193.5625
532.3  1158.3125
532.2  1120.875
532.1  1106.0625
532  1070.6875
531.9  1055.25
531.8  1013.25
531.7  1006.0625
531.6  968.8125
531.5  977.5
531.4  947.75
531.3  950.3125
531.2  920.0625
531.1  914.875
531  897.125
530.9  895.125
530.8  898.875
530.7  872.375
530.6  880.125
530.5  890.9375
530.4  859.5
530.3  871.5
530.2  864.375
530.1  853.9375
530  857.1875
529.9  868.5625
529.8  850.1875
529.7  849.1875
529.6  842.9375
529.5  847.0625
529.4  856.5
529.3  850.0625
529.2  833.5625
529.1  850.4375
529  839.375
528.9  848.8125
528.8  831.125
528.7  826.4375
528.6  832.1875
528.5  825.8125
528.4  823.5
528.3  812.5625
528.2  826.4375
528.1  819.25
528  821.375
527.9  814.875
527.8  812.3125
527.7  827.1875
527.6  817.875
527.5  832.75
527.4  843.125
527.3  854.0625
527.2  861.9375
527.1  864.3125
527  870.625

# Region:            N1s
# Acquisition Date:  05/21/22 09:18:16 UTC
# Analysis Method:   XPS
# Analyzer:          Phoibos 100 R6
# Analyzer Lens:     LargeArea:1.5kV
# Analyzer Slit:     1:0.2x20\B:open
# Scan Mode:         FixedAnalyzerTransmission
# Curves/Scan:       1
# Values/Curve:      121
# Dwell Time:        0.8
# Excitation Energy: 1486.61
# Binding Energy:    409
# Pass Energy:       30
# Bias Voltage:      90
# Detector Voltage:  2600
# Eff. Workfunction: 4.309
# Source:            X-Ray Dummy
# Comment:           
#
# Cycle: 0
# Number of Scans: 95
#
# Cycle: 0, Curve: 0
# Acquisition Date: 05/21/22 09:18:16 UTC
#
# ColumnLabels: energy counts/s
#
409  598.46053
408.9  590.40789
408.8  595.07895
408.7  594.65789
408.6  585.76316
408.5  596.68421
408.4  589.60526
408.3  594.44737
408.2  591.44737
408.1  596.27632
408  593.23684
407.9  596.38158
407.8  593.13158
407.7  594.97368
407.6  591.56579
407.5  592.93421
407.4  597.82895
407.3  589.13158
407.2  591.44737
407.1  592.90789
407  591.73684
406.9  592.39474
406.8  595
406.7  600.47368
406.6  595.27632
406.5  595.47368
406.4  591.22368
406.3  595.81579
406.2  593.13158
406.1  593.36842
406  596.81579
405.9  592.93421
405.8  592.11842
405.7  595.57895
405.6  592.86842
405.5  595
405.4  591.69737
405.3  591.47368
405.2  598
405.1  595.35526
405  596.68421
404.9  594.67105
404.8  595.13158
404.7  596.27632
404.6  596.72368
404.5  596.13158
404.4  594.52632
404.3  593.72368
404.2  601.68421
404.1  600.48684
404  596.63158
403.9  598.97368
403.8  599.68421
403.7  600.56579
403.6  602.31579
403.5  602.02632
403.4  608
403.3  603.32895
403.2  599.48684
403.1  603.98684
403  605.17105
402.9  610.40789
402.8  610.34211
402.7  611.5
402.6  608.89474
402.5  610.43421
402.4  608.80263
402.3  613.01316
402.2  606.34211
402.1  607.85526
402  608
401.9  611.75
401.8  605.71053
401.7  608.61842
401.6  609.17105
401.5  606.25
401.4  608.19737
401.3  607.53947
401.2  602.53947
401.1  599.76316
401  601.98684
400.9  602.93421
400.8  598.64474
400.7  597.71053
400.6  598.23684
400.5  601.97368
400.4  599.47368
400.3  592.56579
400.2  598.51316
400.1  591.59211
400  594.44737
399.9  593.15789
399.8  585.72368
399.7  592.28947
399.6  595.85526
399.5  594.01316
399.4  589.71053
399.3  590.48684
399.2  589.76316
399.1  587.96053
399  589.13158
398.9  589
398.8  587.40789
398.7  588.59211
398.6  588.82895
398.5  586.27632
398.4  585.07895
398.3  588.60526
398.2  594.14474
398.1  586.90789
398  583.34211
397.9  592.56579
397.8  591.42105
397.7  586.03947
397.6  589.30263
397.5  585.23684
397.4  588.68421
397.3  589.42105
397.2  590.01316
397.1  588.32895
397  586.27632

# Region:            Cl2p
# Acquisition Date:  05/21/22 06:21:33 UTC
# Analysis Method:   XPS
# Analyzer:          Phoibos 100 R6
# Analyzer Lens:     LargeArea:1.5kV
# Analyzer Slit:     1:0.2x20\B:open
# Scan Mode:         FixedAnalyzerTransmission
# Curves/Scan:       1
# Values/Curve:      111
# Dwell Time:        0.8
# Excitation Energy: 1486.61
# Binding Energy:    207
# Pass Energy:       30
# Bias Voltage:      90
# Detector Voltage:  2600
# Eff. Workfunction: 4.309
# Source:            X-Ray Dummy
# Comment:           
#
# Cycle: 0
# Number of Scans: 50
#
# Cycle: 0, Curve: 0
# Acquisition Date: 05/21/22 06:21:33 UTC
#
# ColumnLabels: energy counts/s
#
207  550.625
206.9  558.125
206.8  556.025
206.7  555.775
206.6  557.9
206.5  558.4
206.4  562.7
206.3  548.6
206.2  560.375
206.1  558.3
206  557.9
205.9  563.925
205.8  555.475
205.7  566.45
205.6  558.975
205.5  559.55
205.4  556
205.3  558.05
205.2  561.65
205.1  561.125
205  561.225
204.9  557.125
204.8  564.05
204.7  561.15
204.6  567.65
204.5  568.625
204.4  563.275
204.3  571.475
204.2  569.9
204.1  567.175
204  566.95
203.9  568.9
203.8  571.425
203.7  568.55
203.6  581.5
203.5  581.1
203.4  588.425
203.3  581.175
203.2  587.775
203.1  598.3
203  596.75
202.9  600.9
202.8  602.35
202.7  606.475
202.6  618.25
202.5  607.525
202.4  615.075
202.3  618.9
202.2  628.05
202.1  617.975
202  631.275
201.9  628.25
201.8  630.975
201.7  635.75
201.6  631.1
201.5  636.975
201.4  638.8
201.3  634.65
201.2  636.625
201.1  639.55
201  649.575
200.9  651.075
200.8  658.025
200.7  644.825
200.6  649.55
200.5  633.95
200.4  643.4
200.3  639.45
200.2  632.625
200.1  626.875
200  618.925
199.9  617.35
199.8  612.025
199.7  606.375
199.6  604.75
199.5  590.775
199.4  583.35
199.3  577.15
199.2  576.425
199.1  569.425
199  570.375
198.9  567.225
198.8  561.5
198.7  566.775
198.6  561.05
198.5  569.5
198.4  563.35
198.3  557.35
198.2  564.25
198.1  559
198  555.65
197.9  558.45
197.8  560.825
197.7  558.625
197.6  561.65
197.5  558.375
197.4  559.025
197.3  557.575
197.2  557.2
197.1  559.025
197  558.175
196.9  555
196.8  555.575
196.7  564.1
196.6  563.825
196.5  565.65
196.4  565.275
196.3  558.175
196.2  558.425
196.1  570.55
196  563.325

# Region:            overview
# Acquisition Date:  05/20/22 15:29:39 UTC
# Analysis Method:   XPS
# Analyzer:          Phoibos 100 R6
# Analyzer Lens:     MediumArea:1.5kV
# Analyzer Slit:     1:0.2x20\B:open
# Scan Mode:         FixedAnalyzerTransmission
# Curves/Scan:       1
# Values/Curve:      1205
# Dwell Time:        0.2
# Excitation Energy: 1486.61
# Binding Energy:    1200
# Pass Energy:       50
# Bias Voltage:      90
# Detector Voltage:  2600
# Eff. Workfunction: 4.309
# Source:            X-Ray Dummy
# Comment:           
#
# Cycle: 0
# Number of Scans: 1
#
# Cycle: 0, Curve: 0
# Acquisition Date: 05/20/22 15:29:39 UTC
#
# ColumnLabels: energy counts/s
#
1200  2815
1199  2780
1198  2595
1197  3000
1196  2900
1195  2955
1194  2930
1193  2870
1192  2970
1191  2910
1190  3025
1189  2795
1188  2775
1187  2960
1186  2670
1185  2730
1184  2905
1183  2750
1182  2485
1181  2550
1180  2710
1179  2860
1178  2650
1177  2830
1176  2855
1175  2750
1174  2690
1173  2675
1172  2890
1171  2540
1170  2660
1169  2800
1168  2715
1167  2680
1166  2935
1165  2575
1164  2795
1163  2595
1162  2530
1161  2600
1160  2485
1159  2495
1158  2745
1157  2615
1156  2560
1155  2585
1154  2770
1153  2690
1152  2770
1151  2650
1150  2530
1149  2640
1148  2500
1147  2370
1146  2465
1145  2460
1144  2615
1143  2620
1142  2340
1141  2550
1140  2560
1139  2625
1138  2520
1137  2745
1136  2390
1135  2465
1134  2490
1133  2355
1132  2375
1131  2545
1130  2455
1129  2530
1128  2565
1127  2450
1126  2520
1125  2575
1124  2430
1123  2520
1122  2500
1121  2640
1120  2655
1119  2730
1118  2560
1117  2465
1116  2455
1115  2655
1114  2320
1113  2465
1112  2515
1111  2375
1110  2425
1109  2570
1108  2520
1107  2570
1106  2660
1105  2675
1104  2350
1103  2515
1102  2610
1101  2465
1100  2400
1099  2275
1098  2635
1097  2410
1096  2590
1095  2270
1094  2285
1093  2610
1092  2485
1091  2480
1090  2430
1089  2385
1088  2430
1087  2515
1086  2310
1085  2445
1084  2475
1083  2570
1082  2395
1081  2370
1080  2405
1079  2450
1078  2380
1077  2400
1076  2515
1075  2615
1074  2620
1073  2650
1072  2430
1071  2535
1070  2355
1069  2440
1068  2680
1067  2410
1066  2680
1065  2605
1064  2740
1063  2485
1062  2340
1061  2640
1060  2445
1059  2460
1058  2325
1057  2430
1056  2540
1055  2440
1054  2460
1053  2160
1052  2405
1051  2260
1050  2285
1049  2550
1048  2525
1047  2305
1046  2360
1045  2435
1044  2455
1043  2345
1042  2200
1041  2310
1040  2255
1039  2440
1038  2265
1037  2290
1036  2410
1035  2375
1034  2240
1033  2485
1032  2470
1031  2435
1030  2395
1029  2390
1028  2500
1027  2405
1026  2265
1025  2395
1024  2230
1023  2520
1022  2470
1021  2580
1020  2340
1019  2565
1018  2395
1017  2525
1016  2435
1015  2365
1014  2195
1013  2350
1012  2425
1011  2335
1010  2300
1009  2510
1008  2410
1007  2605
1006  2605
1005  2665
1004  2505
1003  2645
1002  2415
1001  2360
1000  2485
999  2375
998  2335
997  2390
996  2440
995  2105
994  2075
993  2235
992  2215
991  2120
990  2505
989  2155
988  2045
987  2300
986  2490
985  2630
984  2560
983  2905
982  2970
981  2945
980  2605
979  2485
978  2260
977  2080
976  1935
975  1895
974  1855
973  1585
972  1615
971  1445
970  1415
969  1400
968  1350
967  1415
966  1465
965  1290
964  1400
963  1455
962  1390
961  1575
960  1455
959  1430
958  1470
957  1550
956  1515
955  1365
954  1480
953  1655
952  1315
951  1395
950  1515
949  1340
948  1590
947  1265
946  1430
945  1365
944  1400
943  1285
942  1445
941  1315
940  1460
939  1310
938  1415
937  1445
936  1570
935  1495
934  1485
933  1455
932  1465
931  1515
930  1310
929  1340
928  1360
927  1490
926  1530
925  1535
924  1465
923  1395
922  1345
921  1685
920  1445
919  1530
918  1480
917  1370
916  1415
915  1470
914  1445
913  1465
912  1355
911  1465
910  1630
909  1705
908  1715
907  1580
906  1660
905  1835
904  1675
903  1745
902  1735
901  1415
900  1570
899  1565
898  1475
897  1475
896  1540
895  1690
894  1680
893  1615
892  1575
891  1630
890  1510
889  1410
888  1500
887  1465
886  1480
885  1320
884  1490
883  1475
882  1405
881  1665
880  1425
879  1605
878  1490
877  1245
876  1480
875  1440
874  1480
873  1335
872  1410
871  1475
870  1320
869  1375
868  1425
867  1235
866  1405
865  1310
864  1280
863  1280
862  1485
861  1580
860  1435
859  1415
858  1440
857  1360
856  1245
855  1460
854  1405
853  1485
852  1485
851  1450
850  1495
849  1410
848  1500
847  1460
846  1475
845  1350
844  1535
843  1330
842  1485
841  1330
840  1545
839  1455
838  1450
837  1470
836  1490
835  1535
834  1335
833  1455
832  1290
831  1405
830  1510
829  1350
828  1525
827  1395
826  1490
825  1545
824  1420
823  1500
822  1555
821  1400
820  1375
819  1405
818  1530
817  1485
816  1570
815  1395
814  1380
813  1320
812  1495
811  1445
810  1515
809  1610
808  1480
807  1370
806  1560
805  1465
804  1480
803  1435
802  1600
801  1560
800  1565
799  1975
798  2100
797  1975
796  1565
795  1670
794  1445
793  1445
792  1495
791  1365
790  1455
789  1625
788  1640
787  1550
786  1550
785  1685
784  1910
783  2360
782  2325
781  1730
780  1635
779  1570
778  1550
777  1375
776  1470
775  1380
774  1380
773  1430
772  1360
771  1450
770  1560
769  1315
768  1455
767  1515
766  1490
765  1515
764  1545
763  1305
762  1345
761  1450
760  1390
759  1560
758  1440
757  1480
756  1240
755  1340
754  1495
753  1350
752  1385
751  1420
750  1585
749  1485
748  1570
747  1355
746  1355
745  1295
744  1470
743  1475
742  1430
741  1450
740  1455
739  1465
738  1545
737  1510
736  1275
735  1385
734  1360
733  1400
732  1480
731  1430
730  1530
729  1380
728  1445
727  1490
726  1310
725  1530
724  1355
723  1550
722  1295
721  1470
720  1445
719  1500
718  1455
717  1470
716  1595
715  1510
714  1520
713  1410
712  1565
711  1665
710  1565
709  1560
708  1345
707  1550
706  1445
705  1485
704  1415
703  1370
702  1395
701  1505
700  1350
699  1495
698  1650
697  1380
696  1600
695  1510
694  1535
693  1445
692  1520
691  1645
690  1535
689  1455
688  1515
687  1580
686  1475
685  1420
684  1470
683  1470
682  1495
681  1580
680  1525
679  1510
678  1510
677  1415
676  1625
675  1435
674  1470
673  1620
672  1480
671  1520
670  1695
669  1685
668  1680
667  1375
666  1585
665  1585
664  1670
663  1655
662  1665
661  1570
660  1465
659  1540
658  1530
657  1485
656  1430
655  1380
654  1590
653  1535
652  1540
651  1605
650  1560
649  1720
648  1610
647  1655
646  1470
645  1725
644  1605
643  1575
642  1640
641  1455
640  1575
639  1645
638  1755
637  1505
636  1695
635  1730
634  1845
633  1610
632  1570
631  1815
630  1560
629  1575
628  1755
627  1680
626  1615
625  1625
624  1650
623  1595
622  1605
621  1685
620  1530
619  1655
618  1500
617  1735
616  1640
615  1690
614  1720
613  1630
612  1800
611  1685
610  1655
609  1545
608  1655
607  1705
606  1820
605  1805
604  1770
603  1680
602  1625
601  1840
600  1620
599  1855
598  1775
597  1770
596  1750
595  1655
594  1655
593  1740
592  1760
591  1620
590  1655
589  1610
588  1800
587  1885
586  1840
585  1760
584  1710
583  1700
582  1715
581  1685
580  1695
579  1800
578  1800
577  1810
576  1815
575  1720
574  1855
573  1730
572  1615
571  1685
570  1790
569  1545
568  1595
567  1840
566  1680
565  1805
564  1885
563  1810
562  1865
561  1945
560  1965
559  2010
558  2325
557  2255
556  2210
555  1890
554  1815
553  1695
552  1670
551  1550
550  1575
549  1525
548  1305
547  1295
546  1260
545  1250
544  1140
543  1045
542  940
541  970
540  1010
539  1115
538  1240
537  2230
536  5495
535  8805
534  6415
533  2510
532  1225
531  850
530  910
529  970
528  895
527  940
526  1235
525  1435
524  1450
523  1140
522  875
521  890
520  765
519  725
518  740
517  705
516  770
515  715
514  765
513  790
512  775
511  810
510  725
509  670
508  775
507  665
506  665
505  785
504  705
503  890
502  675
501  765
500  945
499  875
498  855
497  745
496  770
495  705
494  800
493  730
492  705
491  740
490  715
489  720
488  770
487  790
486  735
485  785
484  675
483  790
482  785
481  650
480  670
479  695
478  745
477  665
476  810
475  650
474  720
473  775
472  740
471  800
470  825
469  740
468  860
467  870
466  660
465  895
464  680
463  765
462  730
461  635
460  760
459  675
458  710
457  725
456  655
455  780
454  780
453  690
452  695
451  675
450  750
449  685
448  730
447  640
446  675
445  740
444  665
443  675
442  705
441  705
440  645
439  720
438  620
437  825
436  680
435  705
434  800
433  690
432  665
431  775
430  720
429  735
428  780
427  650
426  795
425  665
424  695
423  605
422  715
421  655
420  790
419  735
418  740
417  640
416  765
415  715
414  635
413  665
412  705
411  690
410  645
409  685
408  780
407  840
406  750
405  805
404  720
403  735
402  760
401  820
400  710
399  655
398  675
397  740
396  725
395  805
394  780
393  810
392  785
391  750
390  795
389  770
388  735
387  715
386  735
385  755
384  685
383  700
382  730
381  605
380  825
379  625
378  680
377  590
376  715
375  585
374  655
373  765
372  675
371  695
370  810
369  710
368  700
367  835
366  675
365  680
364  695
363  670
362  675
361  645
360  720
359  690
358  655
357  750
356  755
355  730
354  620
353  715
352  790
351  675
350  850
349  845
348  840
347  770
346  740
345  710
344  765
343  805
342  755
341  735
340  765
339  850
338  720
337  760
336  765
335  870
334  670
333  730
332  665
331  575
330  695
329  760
328  665
327  865
326  740
325  745
324  815
323  770
322  785
321  720
320  820
319  755
318  760
317  810
316  735
315  710
314  740
313  705
312  775
311  715
310  690
309  805
308  710
307  715
306  920
305  810
304  600
303  785
302  735
301  720
300  690
299  715
298  795
297  645
296  805
295  705
294  795
293  720
292  745
291  805
290  840
289  950
288  1015
287  1020
286  970
285  800
284  740
283  635
282  815
281  780
280  785
279  715
278  730
277  855
276  680
275  850
274  770
273  840
272  850
271  875
270  835
269  625
268  765
267  890
266  795
265  830
264  755
263  750
262  715
261  695
260  730
259  845
258  685
257  700
256  720
255  810
254  890
253  675
252  660
251  730
250  860
249  755
248  810
247  795
246  760
245  770
244  590
243  745
242  845
241  765
240  845
239  735
238  805
237  690
236  670
235  720
234  810
233  705
232  870
231  820
230  770
229  835
228  810
227  770
226  815
225  850
224  790
223  835
222  835
221  865
220  820
219  795
218  845
217  730
216  785
215  795
214  830
213  815
212  700
211  750
210  765
209  870
208  775
207  855
206  775
205  795
204  845
203  890
202  990
201  955
200  965
199  910
198  755
197  830
196  830
195  775
194  825
193  780
192  735
191  845
190  855
189  760
188  760
187  860
186  935
185  840
184  905
183  1000
182  1005
181  975
180  860
179  890
178  910
177  815
176  890
175  805
174  755
173  785
172  770
171  695
170  770
169  730
168  860
167  735
166  655
165  700
164  670
163  660
162  810
161  735
160  815
159  865
158  1340
157  1985
156  1810
155  1315
154  980
153  745
152  730
151  710
150  705
149  655
148  725
147  740
146  665
145  720
144  640
143  595
142  585
141  565
140  680
139  655
138  485
137  650
136  575
135  585
134  590
133  550
132  640
131  660
130  710
129  710
128  625
127  620
126  670
125  660
124  585
123  580
122  605
121  545
120  585
119  600
118  575
117  640
116  605
115  395
114  550
113  495
112  490
111  490
110  445
109  560
108  680
107  1280
106  1905
105  1635
104  910
103  590
102  410
101  505
100  455
99  310
98  400
97  610
96  575
95  625
94  585
93  620
92  720
91  530
90  345
89  485
88  415
87  445
86  390
85  465
84  360
83  430
82  440
81  415
80  425
79  490
78  340
77  410
76  385
75  400
74  450
73  375
72  430
71  355
70  415
69  355
68  415
67  425
66  535
65  455
64  400
63  430
62  390
61  390
60  430
59  440
58  460
57  420
56  380
55  545
54  455
53  380
52  485
51  500
50  400
49  395
48  370
47  430
46  425
45  350
44  370
43  345
42  395
41  395
40  305
39  460
38  385
37  405
36  405
35  420
34  340
33  430
32  395
31  470
30  530
29  535
28  655
27  670
26  430
25  435
24  300
23  325
22  400
21  395
20  370
19  515
18  415
17  410
16  425
15  360
14  345
13  440
12  395
11  375
10  420
9  435
8  415
7  345
6  335
5  300
4  380
3  400
2  380
1  290
-2.2737368e-013  365
-1  345
-2  195
-3  310
-4  295

# Region:            Si2p
# Acquisition Date:  05/21/22 06:23:03 UTC
# Analysis Method:   XPS
# Analyzer:          Phoibos 100 R6
# Analyzer Lens:     LargeArea:1.5kV
# Analyzer Slit:     1:0.2x20\B:open
# Scan Mode:         FixedAnalyzerTransmission
# Curves/Scan:       1
# Values/Curve:      111
# Dwell Time:        0.8
# Excitation Energy: 1486.61
# Binding Energy:    112
# Pass Energy:       30
# Bias Voltage:      90
# Detector Voltage:  2600
# Eff. Workfunction: 4.309
# Source:            X-Ray Dummy
# Comment:           
#
# Cycle: 0
# Number of Scans: 50
#
# Cycle: 0, Curve: 0
# Acquisition Date: 05/21/22 06:23:03 UTC
#
# ColumnLabels: energy counts/s
#
112  322.275
111.9  324
111.8  328.8
111.7  327
111.6  324.6
111.5  321.925
111.4  320.125
111.3  325.95
111.2  323.5
111.1  324.925
111  329.025
110.9  321.2
110.8  330.375
110.7  331.225
110.6  330.925
110.5  327.05
110.4  326.5
110.3  331.625
110.2  335.45
110.1  341.075
110  339.675
109.9  337.525
109.8  340.05
109.7  343.975
109.6  342.825
109.5  342.225
109.4  347.25
109.3  348.8
109.2  349.85
109.1  358.45
109  354.6
108.9  359.125
108.8  361.5
108.7  373.45
108.6  371.85
108.5  371.45
108.4  382.4
108.3  394.05
108.2  408.3
108.1  417.925
108  424.65
107.9  452.575
107.8  471.75
107.7  494.9
107.6  526.025
107.5  565.475
107.4  605.975
107.3  653.325
107.2  706.75
107.1  755
107  826.2
106.9  902.675
106.8  966.225
106.7  1041.825
106.6  1122.85
106.5  1204.75
106.4  1276.15
106.3  1346.475
106.2  1405.35
106.1  1455.525
106  1503.875
105.9  1510.425
105.8  1518.55
105.7  1517.05
105.6  1500.575
105.5  1455.75
105.4  1408.375
105.3  1352.85
105.2  1291.175
105.1  1204.075
105  1114.85
104.9  1035.65
104.8  946.225
104.7  869.95
104.6  792.025
104.5  728.35
104.4  651.725
104.3  605.75
104.2  550.575
104.1  506.025
104  482.5
103.9  452.1
103.8  427.575
103.7  408.925
103.6  393.25
103.5  381.275
103.4  369.8
103.3  365.5
103.2  356.85
103.1  350.475
103  341.8
102.9  337.525
102.8  339.875
102.7  336.475
102.6  334.475
102.5  327.95
102.4  325.85
102.3  321.575
102.2  323.125
102.1  324.425
102  323.6
101.9  325.725
101.8  323.4
101.7  321.2
101.6  322.2
101.5  320.925
101.4  319.05
101.3  321.775
101.2  320.05
101.1  316.075
101  322.275

# Region:            Na1s
# Acquisition Date:  05/21/22 06:25:47 UTC
# Analysis Method:   XPS
# Analyzer:          Phoibos 100 R6
# Analyzer Lens:     LargeArea:1.5kV
# Analyzer Slit:     1:0.2x20\B:open
# Scan Mode:         FixedAnalyzerTransmission
# Curves/Scan:       1
# Values/Curve:      201
# Dwell Time:        0.8
# Excitation Energy: 1486.61
# Binding Energy:    1085
# Pass Energy:       30
# Bias Voltage:      90
# Detector Voltage:  2600
# Eff. Workfunction: 4.309
# Source:            X-Ray Dummy
# Comment:           
#
# Cycle: 0
# Number of Scans: 50
#
# Cycle: 0, Curve: 0
# Acquisition Date: 05/21/22 06:25:47 UTC
#
# ColumnLabels: energy counts/s
#
1085  3497.675
1084.9  3482.05
1084.8  3482.925
1084.7  3496.05
1084.6  3496.1
1084.5  3486.825
1084.4  3509.3
1084.3  3502.15
1084.2  3488.8
1084.1  3497.55
1084  3494.725
1083.9  3478.575
1083.8  3488.425
1083.7  3495.5
1083.6  3484.3
1083.5  3492.975
1083.4  3483.05
1083.3  3483.85
1083.2  3490.15
1083.1  3495.475
1083  3484.55
1082.9  3485.85
1082.8  3488.95
1082.7  3487.325
1082.6  3473
1082.5  3483.925
1082.4  3469.675
1082.3  3490.35
1082.2  3483.775
1082.1  3507.35
1082  3502.925
1081.9  3482.85
1081.8  3492.225
1081.7  3489.425
1081.6  3491.3
1081.5  3481.9
1081.4  3471.675
1081.3  3481.075
1081.2  3479.575
1081.1  3470.525
1081  3477.55
1080.9  3488.55
1080.8  3481.825
1080.7  3476.5
1080.6  3474.15
1080.5  3487.45
1080.4  3485.25
1080.3  3489.325
1080.2  3481.35
1080.1  3498
1080  3453.75
1079.9  3470.65
1079.8  3471.35
1079.7  3480.175
1079.6  3477.975
1079.5  3483.725
1079.4  3471.15
1079.3  3464.5
1079.2  3476.775
1079.1  3480.35
1079  3477.175
1078.9  3486.45
1078.8  3486.45
1078.7  3488.3
1078.6  3484.975
1078.5  3492.75
1078.4  3465.55
1078.3  3476.95
1078.2  3482.125
1078.1  3491.65
1078  3492.725
1077.9  3492.225
1077.8  3487.15
1077.7  3508.675
1077.6  3514.375
1077.5  3484.6
1077.4  3498.75
1077.3  3500.825
1077.2  3496.55
1077.1  3518.9
1077  3521.475
1076.9  3534.575
1076.8  3523.95
1076.7  3524.525
1076.6  3554.25
1076.5  3551.525
1076.4  3555.625
1076.3  3583.35
1076.2  3578.025
1076.1  3601.125
1076  3611.625
1075.9  3625.1
1075.8  3643.375
1075.7  3661.35
1075.6  3675.45
1075.5  3714.725
1075.4  3706.775
1075.3  3752.15
1075.2  3750.85
1075.1  3774.825
1075  3793.125
1074.9  3813.3
1074.8  3820.05
1074.7  3839.5
1074.6  3837.475
1074.5  3821.9
1074.4  3807.5
1074.3  3830.975
1074.2  3818.5
1074.1  3792.6
1074  3793.475
1073.9  3774.6
1073.8  3754.475
1073.7  3730.325
1073.6  3716.7
1073.5  3698.275
1073.4  3690.55
1073.3  3670.5
1073.2  3648.225
1073.1  3624.75
1073  3606.325
1072.9  3604.35
1072.8  3606.1
1072.7  3578.3
1072.6  3568.15
1072.5  3558.25
1072.4  3543.85
1072.3  3542.225
1072.2  3539.35
1072.1  3544.6
1072  3529.3
1071.9  3515.025
1071.8  3545.575
1071.7  3513.275
1071.6  3525.95
1071.5  3541.925
1071.4  3532.975
1071.3  3513.5
1071.2  3533.925
1071.1  3530.525
1071  3533.9
1070.9  3518.625
1070.8  3519.825
1070.7  3527.375
1070.6  3539.825
1070.5  3560.825
1070.4  3537.1
1070.3  3568.025
1070.2  3536.7
1070.1  3544.125
1070  3544.925
1069.9  3558.075
1069.8  3561
1069.7  3557.85
1069.6  3544.575
1069.5  3542.325
1069.4  3563.3
1069.3  3564.55
1069.2  3577.325
1069.1  3585.575
1069  3569.475
1068.9  3586
1068.8  3574.3
1068.7  3603.275
1068.6  3587.875
1068.5  3594.35
1068.4  3585.5
1068.3  3596.275
1068.2  3615.075
1068.1  3613.325
1068  3618.975
1067.9  3633.625
1067.8  3624.75
1067.7  3649.425
1067.6  3657.175
1067.5  3649.85
1067.4  3647.8
1067.3  3657.675
1067.2  3678.6
1067.1  3653.725
1067  3663.85
1066.9  3677.525
1066.8  3705.85
1066.7  3697.075
1066.6  3704.85
1066.5  3700.25
1066.4  3713.575
1066.3  3711.425
1066.2  3709.625
1066.1  3714.95
1066  3742.175
1065.9  3722.55
1065.8  3748.825
1065.7  3732.15
1065.6  3740.8
1065.5  3751.475
1065.4  3744.825
1065.3  3751.625
1065.2  3753.075
1065.1  3761.275
1065  3755.9

# Region:            Ru3p
# Acquisition Date:  05/21/22 06:32:09 UTC
# Analysis Method:   XPS
# Analyzer:          Phoibos 100 R6
# Analyzer Lens:     LargeArea:1.5kV
# Analyzer Slit:     1:0.2x20\B:open
# Scan Mode:         FixedAnalyzerTransmission
# Curves/Scan:       1
# Values/Curve:      471
# Dwell Time:        0.8
# Excitation Energy: 1486.61
# Binding Energy:    505
# Pass Energy:       30
# Bias Voltage:      90
# Detector Voltage:  2600
# Eff. Workfunction: 4.309
# Source:            X-Ray Dummy
# Comment:           
#
# Cycle: 0
# Number of Scans: 50
#
# Cycle: 0, Curve: 0
# Acquisition Date: 05/21/22 06:32:09 UTC
#
# ColumnLabels: energy counts/s
#
505  693.5
504.9  692.35
504.8  687.9
504.7  687.925
504.6  692.15
504.5  690.9
504.4  697.7
504.3  693.75
504.2  694.725
504.1  690.675
504  684.75
503.9  686.175
503.8  693.3
503.7  692.425
503.6  702.65
503.5  692.725
503.4  690.3
503.3  692.5
503.2  685.25
503.1  694.15
503  688.625
502.9  692.05
502.8  699.875
502.7  698.85
502.6  698.7
502.5  697.95
502.4  693.75
502.3  693.875
502.2  698.925
502.1  703
502  705.1
501.9  701.7
501.8  716.775
501.7  717.425
501.6  716.4
501.5  724.85
501.4  733.175
501.3  731.225
501.2  727.975
501.1  732.825
501  746.55
500.9  737.975
500.8  745.35
500.7  750.025
500.6  752.8
500.5  757.2
500.4  760.05
500.3  766.25
500.2  762.325
500.1  769.75
500  760.775
499.9  754.75
499.8  752.4
499.7  760.95
499.6  752.5
499.5  752.075
499.4  744.4
499.3  743.025
499.2  732.175
499.1  726.225
499  718.225
498.9  723.325
498.8  710.525
498.7  703.825
498.6  713.15
498.5  696.375
498.4  700.4
498.3  697.125
498.2  690.675
498.1  684.65
498  684.375
497.9  686.375
497.8  669.025
497.7  679.5
497.6  678.8
497.5  678.225
497.4  675.4
497.3  677.15
497.2  664.825
497.1  680.7
497  666.75
496.9  674.85
496.8  661.675
496.7  665.15
496.6  670.875
496.5  662.25
496.4  676.175
496.3  672.55
496.2  670.8
496.1  666.925
496  666.275
495.9  666.925
495.8  666.225
495.7  669.55
495.6  663
495.5  662.475
495.4  660.4
495.3  673.925
495.2  660.9
495.1  668.95
495  670.7
494.9  661.725
494.8  664.575
494.7  662.7
494.6  668.2
494.5  661.15
494.4  665.25
494.3  661.125
494.2  671.5
494.1  659.6
494  670.725
493.9  661.4
493.8  662.9
493.7  663.5
493.6  663.725
493.5  662.275
493.4  658.225
493.3  667.05
493.2  659.125
493.1  670.725
493  662.625
492.9  662.65
492.8  662.625
492.7  662.35
492.6  660.05
492.5  660.85
492.4  660.95
492.3  670.8
492.2  663.575
492.1  662
492  668.7
491.9  654.65
491.8  658.175
491.7  668.05
491.6  668.575
491.5  662.05
491.4  668
491.3  660.25
491.2  667.425
491.1  667.55
491  664.15
490.9  662.25
490.8  656.45
490.7  663.475
490.6  664.325
490.5  666.2
490.4  664.575
490.3  668.375
490.2  666.1
490.1  664.425
490  659.775
489.9  663.9
489.8  667.4
489.7  658.55
489.6  655.775
489.5  658.875
489.4  658.175
489.3  658.025
489.2  667.8
489.1  668.25
489  662.5
488.9  664.275
488.8  671.8
488.7  667.375
488.6  656.575
488.5  660.1
488.4  663.45
488.3  665.025
488.2  659.65
488.1  658.925
488  662.375
487.9  662.875
487.8  653.85
487.7  665.725
487.6  673.4
487.5  661.95
487.4  661.125
487.3  656.9
487.2  665.15
487.1  658.425
487  657.95
486.9  661.4
486.8  659.95
486.7  654.375
486.6  660.15
486.5  656.025
486.4  662.1
486.3  658.175
486.2  665.125
486.1  661.75
486  655.825
485.9  654.625
485.8  654.65
485.7  661.25
485.6  655.325
485.5  651.825
485.4  654.9
485.3  659.55
485.2  656.35
485.1  662.775
485  656.775
484.9  661.3
484.8  652.95
484.7  651.575
484.6  658.9
484.5  659.85
484.4  654.275
484.3  662
484.2  659.65
484.1  651.425
484  643.275
483.9  654.475
483.8  658.55
483.7  655.35
483.6  657.225
483.5  654.075
483.4  649.25
483.3  646.675
483.2  652.525
483.1  652.075
483  654.275
482.9  647.375
482.8  648.35
482.7  644.8
482.6  652.2
482.5  648.775
482.4  652
482.3  649
482.2  646.175
482.1  653.2
482  653.075
481.9  641.275
481.8  655.725
481.7  651.05
481.6  652.775
481.5  644.225
481.4  646.325
481.3  648.825
481.2  648.9
481.1  650.975
481  643
480.9  642.625
480.8  649.1
480.7  645.275
480.6  650.05
480.5  650.225
480.4  646.525
480.3  640.125
480.2  651.425
480.1  643.475
480  632
479.9  647.775
479.8  644.125
479.7  640.925
479.6  641.75
479.5  648.725
479.4  639.9
479.3  652.525
479.2  641.125
479.1  642.15
479  639.225
478.9  645.575
478.8  646.2
478.7  641.85
478.6  642.225
478.5  647.525
478.4  641.025
478.3  641.575
478.2  637.55
478.1  641.45
478  643.75
477.9  639.45
477.8  639.525
477.7  638.05
477.6  637.525
477.5  640.4
477.4  630.2
477.3  641.6
477.2  641.7
477.1  639
477  643.575
476.9  639.425
476.8  643.275
476.7  634.775
476.6  639.85
476.5  634.3
476.4  635.325
476.3  631.875
476.2  636.45
476.1  644.15
476  642
475.9  639.675
475.8  636.475
475.7  636.175
475.6  644.175
475.5  629.875
475.4  639.775
475.3  635.625
475.2  633.7
475.1  638.1
475  634.5
474.9  633.5
474.8  643.15
474.7  639.975
474.6  640.1
474.5  635.4
474.4  629.175
474.3  632.925
474.2  639.725
474.1  643.15
474  633.85
473.9  635.2
473.8  640.95
473.7  636.4
473.6  629.8
473.5  638.1
473.4  635.85
473.3  633
473.2  636.875
473.1  633.525
473  631.25
472.9  633.3
472.8  638.6
472.7  640.175
472.6  635.7
472.5  632.1
472.4  635.325
472.3  637.9
472.2  632.9
472.1  631.3
472  634.825
471.9  636.45
471.8  637.475
471.7  637.85
471.6  639.075
471.5  630.525
471.4  638.225
471.3  649.275
471.2  640.1
471.1  638.675
471  642.325
470.9  643.9
470.8  649.15
470.7  645.15
470.6  640.4
470.5  639.975
470.4  643.625
470.3  646.3
470.2  640.225
470.1  646.725
470  643.675
469.9  655.925
469.8  651.225
469.7  651.3
469.6  650.15
469.5  649.275
469.4  651.475
469.3  652.125
469.2  643.875
469.1  656.375
469  651.625
468.9  663.75
468.8  664.25
468.7  658.525
468.6  660.25
468.5  662.275
468.4  662.05
468.3  652.775
468.2  668.075
468.1  662.325
468  665.825
467.9  665.625
467.8  665.5
467.7  672.25
467.6  665.65
467.5  666.575
467.4  672.2
467.3  672.45
467.2  670.2
467.1  675.75
467  674.35
466.9  681.4
466.8  678
466.7  680.9
466.6  677.95
466.5  680.625
466.4  685.85
466.3  677.825
466.2  677.3
466.1  689.95
466  690.375
465.9  690.65
465.8  681
465.7  690.475
465.6  689.675
465.5  686.45
465.4  682.975
465.3  688.725
465.2  693.825
465.1  699.975
465  692.55
464.9  694.05
464.8  691.35
464.7  689.875
464.6  692.075
464.5  685.3
464.4  689.025
464.3  694.65
464.2  692.225
464.1  693.925
464  692.1
463.9  690.65
463.8  681.075
463.7  689.95
463.6  682.825
463.5  678.3
463.4  684.5
463.3  684.925
463.2  684.925
463.1  679.7
463  668.7
462.9  663.825
462.8  661.725
462.7  661.525
462.6  660.275
462.5  655.4
462.4  653.3
462.3  647.675
462.2  648.275
462.1  637.55
462  636.275
461.9  633.225
461.8  633.625
461.7  626.6
461.6  624.775
461.5  623.15
461.4  629.6
461.3  622.525
461.2  624.15
461.1  615.3
461  619.825
460.9  609.75
460.8  621.375
460.7  616.9
460.6  622.65
460.5  615.225
460.4  615.525
460.3  610.225
460.2  617.175
460.1  618.875
460  617.7
459.9  622
459.8  615.95
459.7  621.725
459.6  622.625
459.5  614.025
459.4  615.05
459.3  614.45
459.2  620.45
459.1  603.375
459  617.425
458.9  616.775
458.8  613.525
458.7  621.725
458.6  611.5
458.5  609.625
458.4  607.95
458.3  609.5
458.2  616.075
458.1  618.025
458  607.775

