# Created by:        SpecsLab Prodigy, Version 4.60.2-r85849 
#
# XY-Serializer Export Settings:
#   Comment Prefix:           #
#   Output meta data:         yes
#   Energy Axis:              Binding Energy
#   Count Rate:               Counts per Second
#   Separate Scan Data:       no
#   Separate Channel Data:    no
#   External Channel Data:    yes
#   Transmission Function:    no
#   ErrorBar:                 no
#   Operation Results:        yes
#   Time Zone Format:         UTC
#
# Group:             Spectrum Group
#
# Region:            C1s (2)
# Acquisition Date:  06/02/22 10:29:29 UTC
# Analysis Method:   XPS
# Analyzer:          Phoibos 100 R6
# Analyzer Lens:     LargeArea:1.5kV
# Analyzer Slit:     1:0.2x20\B:open
# Scan Mode:         FixedAnalyzerTransmission
# Curves/Scan:       1
# Values/Curve:      211
# Dwell Time:        0.8
# Excitation Energy: 1486.61
# Binding Energy:    297
# Pass Energy:       30
# Bias Voltage:      90
# Detector Voltage:  2600
# Eff. Workfunction: 4.309
# Source:            X-Ray Dummy
# Comment:           
#
# Cycle: 0
# Number of Scans: 1
#
# Cycle: 0, Curve: 0
# Acquisition Date: 06/02/22 10:29:29 UTC
#
# ColumnLabels: energy counts/s
#
297  572.5
296.9  556.25
296.8  572.5
296.7  587.5
296.6  608.75
296.5  586.25
296.4  600
296.3  571.25
296.2  570
296.1  557.5
296  550
295.9  563.75
295.8  575
295.7  600
295.6  552.5
295.5  543.75
295.4  572.5
295.3  562.5
295.2  547.5
295.1  615
295  563.75
294.9  572.5
294.8  607.5
294.7  586.25
294.6  593.75
294.5  578.75
294.4  596.25
294.3  560
294.2  528.75
294.1  536.25
294  532.5
293.9  572.5
293.8  566.25
293.7  626.25
293.6  566.25
293.5  576.25
293.4  617.5
293.3  621.25
293.2  543.75
293.1  588.75
293  600
292.9  607.5
292.8  588.75
292.7  628.75
292.6  557.5
292.5  590
292.4  618.75
292.3  603.75
292.2  593.75
292.1  595
292  573.75
291.9  573.75
291.8  566.25
291.7  620
291.6  596.25
291.5  582.5
291.4  602.5
291.3  638.75
291.2  617.5
291.1  566.25
291  606.25
290.9  596.25
290.8  602.5
290.7  680
290.6  641.25
290.5  636.25
290.4  655
290.3  612.5
290.2  646.25
290.1  665
290  715
289.9  656.25
289.8  721.25
289.7  678.75
289.6  681.25
289.5  673.75
289.4  698.75
289.3  712.5
289.2  762.5
289.1  710
289  711.25
288.9  716.25
288.8  796.25
288.7  790
288.6  812.5
288.5  807.5
288.4  790
288.3  818.75
288.2  811.25
288.1  755
288  782.5
287.9  792.5
287.8  736.25
287.7  786.25
287.6  703.75
287.5  686.25
287.4  660
287.3  700
287.2  668.75
287.1  696.25
287  638.75
286.9  636.25
286.8  640
286.7  630
286.6  630
286.5  621.25
286.4  587.5
286.3  627.5
286.2  601.25
286.1  571.25
286  632.5
285.9  561.25
285.8  585
285.7  573.75
285.6  536.25
285.5  573.75
285.4  593.75
285.3  560
285.2  628.75
285.1  548.75
285  597.5
284.9  548.75
284.8  621.25
284.7  607.5
284.6  577.5
284.5  542.5
284.4  528.75
284.3  570
284.2  576.25
284.1  556.25
284  591.25
283.9  583.75
283.8  611.25
283.7  592.5
283.6  570
283.5  518.75
283.4  573.75
283.3  567.5
283.2  592.5
283.1  550
283  581.25
282.9  575
282.8  593.75
282.7  545
282.6  578.75
282.5  577.5
282.4  608.75
282.3  563.75
282.2  570
282.1  572.5
282  577.5
281.9  592.5
281.8  553.75
281.7  541.25
281.6  620
281.5  600
281.4  566.25
281.3  575
281.2  590
281.1  582.5
281  531.25
280.9  523.75
280.8  533.75
280.7  546.25
280.6  555
280.5  540
280.4  583.75
280.3  577.5
280.2  598.75
280.1  541.25
280  562.5
279.9  558.75
279.8  553.75
279.7  576.25
279.6  557.5
279.5  538.75
279.4  567.5
279.3  555
279.2  552.5
279.1  535
279  615
278.9  623.75
278.8  600
278.7  566.25
278.6  593.75
278.5  592.5
278.4  568.75
278.3  573.75
278.2  552.5
278.1  637.5
278  545
277.9  537.5
277.8  557.5
277.7  588.75
277.6  631.25
277.5  578.75
277.4  551.25
277.3  567.5
277.2  572.5
277.1  552.5
277  548.75
276.9  522.5
276.8  585
276.7  522.5
276.6  532.5
276.5  560
276.4  575
276.3  586.25
276.2  581.25
276.1  568.75
276  595

# Region:            N1s
# Acquisition Date:  06/02/22 12:02:18 UTC
# Analysis Method:   XPS
# Analyzer:          Phoibos 100 R6
# Analyzer Lens:     LargeArea:1.5kV
# Analyzer Slit:     1:0.2x20\B:open
# Scan Mode:         FixedAnalyzerTransmission
# Curves/Scan:       1
# Values/Curve:      121
# Dwell Time:        0.8
# Excitation Energy: 1486.61
# Binding Energy:    409
# Pass Energy:       30
# Bias Voltage:      90
# Detector Voltage:  2600
# Eff. Workfunction: 4.309
# Source:            X-Ray Dummy
# Comment:           
#
# Cycle: 0
# Number of Scans: 50
#
# Cycle: 0, Curve: 0
# Acquisition Date: 06/02/22 12:02:18 UTC
#
# ColumnLabels: energy counts/s
#
409  632.425
408.9  635.2
408.8  641.3
408.7  635.725
408.6  649.675
408.5  635.575
408.4  634.575
408.3  634
408.2  636.625
408.1  637.075
408  632.025
407.9  635.175
407.8  643.35
407.7  633.525
407.6  633.7
407.5  636
407.4  630.725
407.3  632.05
407.2  628.7
407.1  635.875
407  633.1
406.9  628.65
406.8  632.65
406.7  636.35
406.6  636.3
406.5  634
406.4  629.225
406.3  633.7
406.2  633.425
406.1  635.525
406  634.25
405.9  632.9
405.8  638.475
405.7  642.4
405.6  634.225
405.5  639.025
405.4  632.7
405.3  635.525
405.2  635.775
405.1  635.25
405  638.25
404.9  639.9
404.8  661.15
404.7  643.3
404.6  650.725
404.5  645.375
404.4  643.5
404.3  642.275
404.2  640.775
404.1  641.05
404  644.05
403.9  643.55
403.8  645.875
403.7  639.875
403.6  638.5
403.5  655.675
403.4  641.425
403.3  644
403.2  647
403.1  648.225
403  640.95
402.9  637.625
402.8  650.075
402.7  644.95
402.6  639.95
402.5  638.2
402.4  644.225
402.3  640.75
402.2  636
402.1  640
402  637.975
401.9  637.275
401.8  636.7
401.7  640.3
401.6  637.075
401.5  636.65
401.4  639.225
401.3  632.825
401.2  640.05
401.1  632.275
401  633.875
400.9  638.15
400.8  628.6
400.7  634.325
400.6  633.625
400.5  635.275
400.4  631.275
400.3  627.475
400.2  631.025
400.1  633.025
400  630.975
399.9  635.25
399.8  635.65
399.7  630.275
399.6  628.375
399.5  630.825
399.4  618.4
399.3  622.8
399.2  629.2
399.1  622.55
399  627.95
398.9  630.675
398.8  631.15
398.7  622.175
398.6  633.6
398.5  624.6
398.4  629.85
398.3  624.575
398.2  624.7
398.1  625.525
398  627.9
397.9  629.15
397.8  629.125
397.7  629.2
397.6  623.65
397.5  622.4
397.4  622.6
397.3  631.325
397.2  626.2
397.1  623.15
397  628.55

# Region:            Na1s
# Acquisition Date:  06/02/22 10:34:32 UTC
# Analysis Method:   XPS
# Analyzer:          Phoibos 100 R6
# Analyzer Lens:     LargeArea:1.5kV
# Analyzer Slit:     1:0.2x20\B:open
# Scan Mode:         FixedAnalyzerTransmission
# Curves/Scan:       1
# Values/Curve:      251
# Dwell Time:        0.8
# Excitation Energy: 1486.61
# Binding Energy:    1085
# Pass Energy:       30
# Bias Voltage:      90
# Detector Voltage:  2600
# Eff. Workfunction: 4.309
# Source:            X-Ray Dummy
# Comment:           
#
# Cycle: 0
# Number of Scans: 1
#
# Cycle: 0, Curve: 0
# Acquisition Date: 06/02/22 10:34:32 UTC
#
# ColumnLabels: energy counts/s
#
1085  3523.75
1084.9  3495
1084.8  3527.5
1084.7  3530
1084.6  3575
1084.5  3396.25
1084.4  3402.5
1084.3  3490
1084.2  3408.75
1084.1  3513.75
1084  3420
1083.9  3547.5
1083.8  3433.75
1083.7  3538.75
1083.6  3477.5
1083.5  3508.75
1083.4  3506.25
1083.3  3473.75
1083.2  3370
1083.1  3446.25
1083  3447.5
1082.9  3472.5
1082.8  3536.25
1082.7  3406.25
1082.6  3518.75
1082.5  3418.75
1082.4  3392.5
1082.3  3495
1082.2  3516.25
1082.1  3390
1082  3541.25
1081.9  3521.25
1081.8  3515
1081.7  3477.5
1081.6  3402.5
1081.5  3363.75
1081.4  3411.25
1081.3  3473.75
1081.2  3390
1081.1  3515
1081  3420
1080.9  3441.25
1080.8  3401.25
1080.7  3452.5
1080.6  3405
1080.5  3381.25
1080.4  3460
1080.3  3395
1080.2  3463.75
1080.1  3438.75
1080  3416.25
1079.9  3478.75
1079.8  3447.5
1079.7  3528.75
1079.6  3527.5
1079.5  3526.25
1079.4  3533.75
1079.3  3483.75
1079.2  3375
1079.1  3338.75
1079  3526.25
1078.9  3473.75
1078.8  3475
1078.7  3330
1078.6  3455
1078.5  3490
1078.4  3546.25
1078.3  3402.5
1078.2  3291.25
1078.1  3427.5
1078  3426.25
1077.9  3403.75
1077.8  3472.5
1077.7  3481.25
1077.6  3352.5
1077.5  3395
1077.4  3426.25
1077.3  3488.75
1077.2  3487.5
1077.1  3332.5
1077  3418.75
1076.9  3503.75
1076.8  3458.75
1076.7  3562.5
1076.6  3525
1076.5  3466.25
1076.4  3468.75
1076.3  3467.5
1076.2  3431.25
1076.1  3387.5
1076  3527.5
1075.9  3622.5
1075.8  3361.25
1075.7  3563.75
1075.6  3365
1075.5  3556.25
1075.4  3541.25
1075.3  3478.75
1075.2  3480
1075.1  3470
1075  3495
1074.9  3480
1074.8  3442.5
1074.7  3421.25
1074.6  3452.5
1074.5  3373.75
1074.4  3395
1074.3  3303.75
1074.2  3501.25
1074.1  3500
1074  3387.5
1073.9  3338.75
1073.8  3267.5
1073.7  3456.25
1073.6  3476.25
1073.5  3431.25
1073.4  3442.5
1073.3  3485
1073.2  3453.75
1073.1  3483.75
1073  3413.75
1072.9  3535
1072.8  3525
1072.7  3345
1072.6  3502.5
1072.5  3533.75
1072.4  3531.25
1072.3  3510
1072.2  3402.5
1072.1  3381.25
1072  3612.5
1071.9  3347.5
1071.8  3600
1071.7  3325
1071.6  3418.75
1071.5  3342.5
1071.4  3476.25
1071.3  3403.75
1071.2  3465
1071.1  3552.5
1071  3480
1070.9  3431.25
1070.8  3412.5
1070.7  3483.75
1070.6  3432.5
1070.5  3306.25
1070.4  3535
1070.3  3527.5
1070.2  3370
1070.1  3267.5
1070  3373.75
1069.9  3255
1069.8  3422.5
1069.7  3498.75
1069.6  3500
1069.5  3442.5
1069.4  3488.75
1069.3  3455
1069.2  3517.5
1069.1  3493.75
1069  3423.75
1068.9  3392.5
1068.8  3483.75
1068.7  3410
1068.6  3446.25
1068.5  3455
1068.4  3516.25
1068.3  3540
1068.2  3356.25
1068.1  3508.75
1068  3497.5
1067.9  3487.5
1067.8  3401.25
1067.7  3385
1067.6  3472.5
1067.5  3391.25
1067.4  3538.75
1067.3  3292.5
1067.2  3387.5
1067.1  3431.25
1067  3353.75
1066.9  3372.5
1066.8  3507.5
1066.7  3421.25
1066.6  3530
1066.5  3463.75
1066.4  3432.5
1066.3  3415
1066.2  3477.5
1066.1  3355
1066  3460
1065.9  3398.75
1065.8  3505
1065.7  3477.5
1065.6  3341.25
1065.5  3427.5
1065.4  3398.75
1065.3  3433.75
1065.2  3467.5
1065.1  3420
1065  3413.75
1064.9  3397.5
1064.8  3475
1064.7  3355
1064.6  3368.75
1064.5  3495
1064.4  3520
1064.3  3465
1064.2  3376.25
1064.1  3403.75
1064  3467.5
1063.9  3423.75
1063.8  3412.5
1063.7  3377.5
1063.6  3397.5
1063.5  3393.75
1063.4  3636.25
1063.3  3405
1063.2  3512.5
1063.1  3491.25
1063  3351.25
1062.9  3448.75
1062.8  3511.25
1062.7  3352.5
1062.6  3435
1062.5  3473.75
1062.4  3442.5
1062.3  3402.5
1062.2  3470
1062.1  3376.25
1062  3492.5
1061.9  3388.75
1061.8  3451.25
1061.7  3471.25
1061.6  3460
1061.5  3407.5
1061.4  3397.5
1061.3  3338.75
1061.2  3475
1061.1  3370
1061  3455
1060.9  3480
1060.8  3423.75
1060.7  3436.25
1060.6  3420
1060.5  3492.5
1060.4  3413.75
1060.3  3395
1060.2  3455
1060.1  3377.5
1060  3498.75

# Region:            F1s
# Acquisition Date:  06/02/22 10:37:16 UTC
# Analysis Method:   XPS
# Analyzer:          Phoibos 100 R6
# Analyzer Lens:     LargeArea:1.5kV
# Analyzer Slit:     1:0.2x20\B:open
# Scan Mode:         FixedAnalyzerTransmission
# Curves/Scan:       1
# Values/Curve:      201
# Dwell Time:        0.8
# Excitation Energy: 1486.61
# Binding Energy:    705
# Pass Energy:       30
# Bias Voltage:      90
# Detector Voltage:  2600
# Eff. Workfunction: 4.309
# Source:            X-Ray Dummy
# Comment:           
#
# Cycle: 0
# Number of Scans: 1
#
# Cycle: 0, Curve: 0
# Acquisition Date: 06/02/22 10:37:16 UTC
#
# ColumnLabels: energy counts/s
#
705  1683.75
704.9  1667.5
704.8  1657.5
704.7  1663.75
704.6  1655
704.5  1585
704.4  1685
704.3  1678.75
704.2  1675
704.1  1625
704  1678.75
703.9  1692.5
703.8  1648.75
703.7  1661.25
703.6  1735
703.5  1623.75
703.4  1628.75
703.3  1676.25
703.2  1711.25
703.1  1716.25
703  1626.25
702.9  1721.25
702.8  1698.75
702.7  1705
702.6  1665
702.5  1691.25
702.4  1676.25
702.3  1698.75
702.2  1682.5
702.1  1651.25
702  1686.25
701.9  1645
701.8  1618.75
701.7  1635
701.6  1638.75
701.5  1718.75
701.4  1685
701.3  1706.25
701.2  1667.5
701.1  1686.25
701  1722.5
700.9  1772.5
700.8  1720
700.7  1691.25
700.6  1727.5
700.5  1677.5
700.4  1643.75
700.3  1640
700.2  1685
700.1  1678.75
700  1697.5
699.9  1668.75
699.8  1740
699.7  1688.75
699.6  1698.75
699.5  1661.25
699.4  1758.75
699.3  1697.5
699.2  1690
699.1  1676.25
699  1686.25
698.9  1625
698.8  1622.5
698.7  1655
698.6  1718.75
698.5  1703.75
698.4  1705
698.3  1666.25
698.2  1696.25
698.1  1701.25
698  1691.25
697.9  1663.75
697.8  1728.75
697.7  1683.75
697.6  1693.75
697.5  1705
697.4  1683.75
697.3  1693.75
697.2  1638.75
697.1  1592.5
697  1642.5
696.9  1715
696.8  1620
696.7  1632.5
696.6  1587.5
696.5  1653.75
696.4  1658.75
696.3  1683.75
696.2  1628.75
696.1  1616.25
696  1603.75
695.9  1716.25
695.8  1605
695.7  1635
695.6  1685
695.5  1687.5
695.4  1640
695.3  1683.75
695.2  1647.5
695.1  1740
695  1707.5
694.9  1636.25
694.8  1676.25
694.7  1707.5
694.6  1625
694.5  1737.5
694.4  1712.5
694.3  1627.5
694.2  1723.75
694.1  1706.25
694  1680
693.9  1655
693.8  1636.25
693.7  1642.5
693.6  1741.25
693.5  1777.5
693.4  1646.25
693.3  1667.5
693.2  1696.25
693.1  1740
693  1670
692.9  1716.25
692.8  1597.5
692.7  1725
692.6  1740
692.5  1748.75
692.4  1660
692.3  1715
692.2  1708.75
692.1  1633.75
692  1766.25
691.9  1725
691.8  1677.5
691.7  1618.75
691.6  1663.75
691.5  1853.75
691.4  1696.25
691.3  1697.5
691.2  1728.75
691.1  1690
691  1671.25
690.9  1711.25
690.8  1722.5
690.7  1710
690.6  1672.5
690.5  1598.75
690.4  1618.75
690.3  1676.25
690.2  1693.75
690.1  1771.25
690  1725
689.9  1703.75
689.8  1655
689.7  1622.5
689.6  1793.75
689.5  1626.25
689.4  1728.75
689.3  1686.25
689.2  1717.5
689.1  1730
689  1657.5
688.9  1715
688.8  1730
688.7  1745
688.6  1640
688.5  1695
688.4  1770
688.3  1636.25
688.2  1610
688.1  1730
688  1651.25
687.9  1725
687.8  1686.25
687.7  1732.5
687.6  1686.25
687.5  1688.75
687.4  1661.25
687.3  1621.25
687.2  1712.5
687.1  1655
687  1615
686.9  1591.25
686.8  1683.75
686.7  1673.75
686.6  1746.25
686.5  1722.5
686.4  1760
686.3  1712.5
686.2  1658.75
686.1  1708.75
686  1710
685.9  1681.25
685.8  1766.25
685.7  1670
685.6  1780
685.5  1612.5
685.4  1716.25
685.3  1647.5
685.2  1726.25
685.1  1677.5
685  1663.75

# Region:            overview
# Acquisition Date:  06/02/22 10:41:45 UTC
# Analysis Method:   XPS
# Analyzer:          Phoibos 100 R6
# Analyzer Lens:     MediumArea:1.5kV
# Analyzer Slit:     1:0.2x20\B:open
# Scan Mode:         FixedAnalyzerTransmission
# Curves/Scan:       1
# Values/Curve:      1205
# Dwell Time:        0.2
# Excitation Energy: 1486.61
# Binding Energy:    1200
# Pass Energy:       50
# Bias Voltage:      90
# Detector Voltage:  2600
# Eff. Workfunction: 4.309
# Source:            X-Ray Dummy
# Comment:           
#
# Cycle: 0
# Number of Scans: 1
#
# Cycle: 0, Curve: 0
# Acquisition Date: 06/02/22 10:41:45 UTC
#
# ColumnLabels: energy counts/s
#
1200  2990
1199  2815
1198  2875
1197  2915
1196  3040
1195  2940
1194  2920
1193  2845
1192  2770
1191  2835
1190  2910
1189  2835
1188  2830
1187  2935
1186  2760
1185  2815
1184  2905
1183  2835
1182  2755
1181  2830
1180  2515
1179  2855
1178  2650
1177  2665
1176  2690
1175  2725
1174  2780
1173  2670
1172  2670
1171  2595
1170  2460
1169  2735
1168  2810
1167  2690
1166  2610
1165  2590
1164  2600
1163  2580
1162  2750
1161  2655
1160  2415
1159  2565
1158  2495
1157  2455
1156  2745
1155  2630
1154  2535
1153  2425
1152  2735
1151  2610
1150  2645
1149  2420
1148  2485
1147  2620
1146  2565
1145  2545
1144  2510
1143  2610
1142  2515
1141  2575
1140  2570
1139  2450
1138  2415
1137  2740
1136  2550
1135  2415
1134  2690
1133  2550
1132  2455
1131  2490
1130  2410
1129  2420
1128  2325
1127  2555
1126  2480
1125  2510
1124  2465
1123  2355
1122  2440
1121  2520
1120  2445
1119  2540
1118  2525
1117  2245
1116  2440
1115  2370
1114  2375
1113  2550
1112  2045
1111  2330
1110  2355
1109  2515
1108  2500
1107  2305
1106  2405
1105  2255
1104  2280
1103  2190
1102  2345
1101  2390
1100  2315
1099  2405
1098  2250
1097  2485
1096  2380
1095  2340
1094  2205
1093  2285
1092  2060
1091  2325
1090  2390
1089  2195
1088  2415
1087  2260
1086  2175
1085  2190
1084  2205
1083  2220
1082  2360
1081  2320
1080  2460
1079  2370
1078  2195
1077  2390
1076  2370
1075  2325
1074  2325
1073  2265
1072  2325
1071  2355
1070  2235
1069  2370
1068  2380
1067  2155
1066  2105
1065  2320
1064  2105
1063  2385
1062  2135
1061  2370
1060  2215
1059  2285
1058  2235
1057  2155
1056  2495
1055  2115
1054  2205
1053  2580
1052  2320
1051  2175
1050  2330
1049  2340
1048  2205
1047  2455
1046  2285
1045  2320
1044  2385
1043  2275
1042  2305
1041  2425
1040  2335
1039  2245
1038  2255
1037  2215
1036  2115
1035  2325
1034  2250
1033  2330
1032  2230
1031  2290
1030  2405
1029  2475
1028  2190
1027  2385
1026  2330
1025  2435
1024  2330
1023  2425
1022  2470
1021  2330
1020  2185
1019  2285
1018  2250
1017  2265
1016  2260
1015  2110
1014  2220
1013  2140
1012  2470
1011  2345
1010  2220
1009  2370
1008  2355
1007  2410
1006  2590
1005  2565
1004  2750
1003  2550
1002  2410
1001  2215
1000  2165
999  2275
998  2390
997  2265
996  2030
995  2080
994  2070
993  2285
992  2210
991  2320
990  2235
989  2160
988  2325
987  2550
986  2590
985  2655
984  2955
983  2880
982  3400
981  2825
980  2445
979  2145
978  2085
977  1905
976  1960
975  1795
974  1615
973  1730
972  1495
971  1470
970  1460
969  1495
968  1550
967  1340
966  1310
965  1520
964  1375
963  1550
962  1335
961  1435
960  1490
959  1285
958  1410
957  1275
956  1340
955  1380
954  1350
953  1395
952  1345
951  1345
950  1380
949  1315
948  1345
947  1390
946  1425
945  1325
944  1355
943  1470
942  1275
941  1400
940  1370
939  1515
938  1385
937  1425
936  1345
935  1455
934  1490
933  1380
932  1355
931  1315
930  1220
929  1295
928  1475
927  1375
926  1285
925  1405
924  1370
923  1295
922  1265
921  1370
920  1375
919  1385
918  1460
917  1415
916  1355
915  1470
914  1385
913  1230
912  1385
911  1435
910  1450
909  1465
908  1525
907  1375
906  1265
905  1420
904  1375
903  1290
902  1290
901  1210
900  1385
899  1170
898  1405
897  1305
896  1320
895  1460
894  1365
893  1385
892  1430
891  1335
890  1370
889  1355
888  1360
887  1245
886  1275
885  1405
884  1435
883  1480
882  1235
881  1530
880  1490
879  1390
878  1430
877  1295
876  1300
875  1485
874  1305
873  1450
872  1500
871  1355
870  1420
869  1330
868  1315
867  1280
866  1470
865  1620
864  1505
863  1310
862  1275
861  1175
860  1450
859  1500
858  1430
857  1425
856  1445
855  1315
854  1375
853  1335
852  1400
851  1475
850  1450
849  1230
848  1505
847  1495
846  1450
845  1240
844  1360
843  1490
842  1320
841  1250
840  1350
839  1260
838  1260
837  1435
836  1335
835  1235
834  1345
833  1415
832  1325
831  1495
830  1415
829  1445
828  1310
827  1455
826  1400
825  1335
824  1290
823  1400
822  1405
821  1450
820  1325
819  1540
818  1430
817  1405
816  1385
815  1485
814  1475
813  1420
812  1400
811  1350
810  1395
809  1255
808  1525
807  1320
806  1360
805  1410
804  1380
803  1315
802  1340
801  1515
800  1280
799  1280
798  1470
797  1320
796  1360
795  1365
794  1390
793  1360
792  1440
791  1495
790  1345
789  1520
788  1400
787  1410
786  1360
785  1415
784  1450
783  1480
782  1525
781  1545
780  1440
779  1420
778  1450
777  1430
776  1145
775  1335
774  1380
773  1245
772  1465
771  1465
770  1430
769  1470
768  1525
767  1510
766  1415
765  1365
764  1565
763  1375
762  1415
761  1480
760  1550
759  1345
758  1435
757  1360
756  1370
755  1445
754  1450
753  1385
752  1385
751  1360
750  1475
749  1490
748  1410
747  1360
746  1360
745  1480
744  1325
743  1465
742  1540
741  1435
740  1475
739  1340
738  1465
737  1370
736  1405
735  1460
734  1410
733  1355
732  1350
731  1310
730  1515
729  1480
728  1310
727  1545
726  1575
725  1430
724  1505
723  1560
722  1440
721  1435
720  1500
719  1275
718  1585
717  1545
716  1715
715  1485
714  1430
713  1625
712  1405
711  1465
710  1470
709  1515
708  1480
707  1615
706  1330
705  1410
704  1330
703  1565
702  1480
701  1505
700  1485
699  1595
698  1615
697  1650
696  1535
695  1550
694  1680
693  1545
692  1615
691  1485
690  1295
689  1460
688  1605
687  1490
686  1375
685  1430
684  1580
683  1535
682  1415
681  1440
680  1625
679  1465
678  1635
677  1460
676  1570
675  1515
674  1400
673  1565
672  1505
671  1480
670  1540
669  1520
668  1435
667  1665
666  1435
665  1635
664  1590
663  1590
662  1395
661  1665
660  1675
659  1435
658  1720
657  1380
656  1540
655  1570
654  1780
653  1495
652  1630
651  1530
650  1555
649  1600
648  1655
647  1650
646  1575
645  1670
644  1600
643  1535
642  1415
641  1620
640  1760
639  1680
638  1710
637  1745
636  1480
635  1670
634  1565
633  1470
632  1665
631  1690
630  1620
629  1605
628  1615
627  1700
626  1645
625  1655
624  1705
623  1710
622  1800
621  1725
620  1805
619  1630
618  1650
617  1800
616  1545
615  1690
614  1560
613  1575
612  1840
611  1540
610  1585
609  1670
608  1740
607  1785
606  1535
605  1660
604  1695
603  1625
602  1800
601  1745
600  1805
599  1775
598  1805
597  1745
596  1825
595  1930
594  1740
593  1765
592  1845
591  1805
590  1670
589  1785
588  1605
587  1660
586  1715
585  1580
584  1585
583  1860
582  1965
581  1640
580  1710
579  1810
578  1675
577  1790
576  1780
575  1805
574  1885
573  1780
572  1795
571  1710
570  1775
569  1540
568  1850
567  1865
566  1600
565  1795
564  1915
563  1995
562  1935
561  2070
560  2035
559  2070
558  2180
557  1940
556  1905
555  1915
554  1680
553  1655
552  1535
551  1405
550  1455
549  1275
548  1540
547  1290
546  1150
545  1180
544  1005
543  1065
542  1045
541  1135
540  1345
539  1430
538  3080
537  6535
536  8325
535  4725
534  2155
533  1250
532  910
531  870
530  855
529  805
528  1105
527  1225
526  1440
525  1235
524  1030
523  955
522  790
521  735
520  710
519  665
518  770
517  855
516  715
515  795
514  775
513  875
512  810
511  685
510  825
509  735
508  755
507  785
506  720
505  705
504  750
503  660
502  640
501  645
500  810
499  870
498  715
497  815
496  705
495  825
494  745
493  625
492  750
491  690
490  620
489  715
488  760
487  720
486  665
485  835
484  685
483  745
482  790
481  770
480  700
479  760
478  730
477  780
476  710
475  805
474  695
473  805
472  775
471  740
470  815
469  755
468  865
467  865
466  720
465  835
464  790
463  740
462  680
461  705
460  760
459  675
458  755
457  750
456  770
455  700
454  625
453  710
452  760
451  755
450  615
449  710
448  655
447  720
446  715
445  815
444  695
443  760
442  740
441  630
440  760
439  645
438  825
437  635
436  710
435  770
434  645
433  675
432  800
431  715
430  660
429  750
428  760
427  625
426  605
425  700
424  635
423  710
422  675
421  720
420  685
419  765
418  745
417  760
416  680
415  790
414  755
413  810
412  735
411  800
410  745
409  895
408  590
407  720
406  795
405  860
404  890
403  830
402  845
401  710
400  685
399  800
398  750
397  700
396  725
395  760
394  780
393  730
392  805
391  665
390  755
389  775
388  650
387  695
386  750
385  680
384  650
383  705
382  765
381  730
380  725
379  680
378  730
377  685
376  605
375  740
374  790
373  825
372  705
371  750
370  700
369  630
368  715
367  735
366  740
365  700
364  700
363  715
362  690
361  740
360  805
359  780
358  785
357  725
356  795
355  645
354  675
353  710
352  725
351  660
350  870
349  820
348  785
347  740
346  905
345  710
344  715
343  770
342  725
341  830
340  750
339  885
338  690
337  745
336  740
335  685
334  645
333  685
332  700
331  815
330  720
329  925
328  660
327  670
326  830
325  705
324  730
323  800
322  665
321  685
320  710
319  705
318  845
317  760
316  830
315  685
314  670
313  760
312  835
311  690
310  800
309  685
308  805
307  700
306  700
305  695
304  960
303  780
302  685
301  810
300  740
299  715
298  705
297  725
296  795
295  820
294  740
293  860
292  740
291  830
290  830
289  940
288  1155
287  840
286  955
285  815
284  650
283  740
282  795
281  785
280  765
279  820
278  775
277  605
276  625
275  650
274  830
273  755
272  730
271  750
270  645
269  760
268  770
267  800
266  755
265  790
264  825
263  815
262  765
261  760
260  730
259  690
258  705
257  670
256  780
255  840
254  935
253  735
252  705
251  840
250  745
249  780
248  740
247  830
246  845
245  760
244  800
243  780
242  910
241  680
240  840
239  870
238  690
237  735
236  780
235  830
234  795
233  820
232  855
231  845
230  765
229  815
228  800
227  595
226  850
225  815
224  785
223  820
222  710
221  795
220  795
219  785
218  675
217  935
216  850
215  735
214  800
213  850
212  760
211  780
210  920
209  830
208  785
207  770
206  740
205  825
204  775
203  765
202  820
201  880
200  855
199  755
198  710
197  740
196  795
195  785
194  830
193  765
192  670
191  810
190  710
189  710
188  900
187  930
186  820
185  825
184  760
183  915
182  1030
181  860
180  800
179  875
178  860
177  855
176  735
175  755
174  670
173  860
172  765
171  700
170  795
169  725
168  670
167  745
166  635
165  705
164  710
163  635
162  755
161  735
160  1080
159  1790
158  1860
157  1750
156  1310
155  930
154  755
153  815
152  580
151  615
150  705
149  720
148  785
147  650
146  630
145  665
144  575
143  625
142  775
141  645
140  635
139  625
138  655
137  555
136  720
135  620
134  645
133  690
132  615
131  745
130  625
129  730
128  750
127  720
126  635
125  650
124  650
123  580
122  550
121  525
120  575
119  565
118  455
117  445
116  435
115  510
114  475
113  510
112  460
111  445
110  550
109  705
108  1610
107  2245
106  1395
105  920
104  550
103  465
102  520
101  485
100  480
99  390
98  515
97  565
96  495
95  545
94  450
93  435
92  410
91  400
90  430
89  455
88  505
87  400
86  440
85  405
84  440
83  445
82  480
81  410
80  435
79  425
78  365
77  465
76  445
75  430
74  455
73  480
72  370
71  395
70  345
69  480
68  440
67  435
66  380
65  365
64  400
63  430
62  505
61  405
60  445
59  410
58  395
57  375
56  365
55  440
54  445
53  455
52  420
51  390
50  520
49  420
48  480
47  400
46  345
45  400
44  460
43  345
42  385
41  470
40  430
39  440
38  410
37  525
36  395
35  440
34  520
33  510
32  440
31  575
30  645
29  695
28  665
27  505
26  430
25  430
24  430
23  335
22  390
21  355
20  440
19  445
18  465
17  430
16  385
15  430
14  405
13  355
12  325
11  495
10  430
9  425
8  360
7  370
6  330
5  375
4  345
3  295
2  345
1  340
-2.2737368e-013  405
-1  325
-2  415
-3  330
-4  410

# Region:            Si2p
# Acquisition Date:  06/02/22 12:09:31 UTC
# Analysis Method:   XPS
# Analyzer:          Phoibos 100 R6
# Analyzer Lens:     LargeArea:1.5kV
# Analyzer Slit:     1:0.2x20\B:open
# Scan Mode:         FixedAnalyzerTransmission
# Curves/Scan:       1
# Values/Curve:      111
# Dwell Time:        0.8
# Excitation Energy: 1486.61
# Binding Energy:    112
# Pass Energy:       30
# Bias Voltage:      90
# Detector Voltage:  2600
# Eff. Workfunction: 4.309
# Source:            X-Ray Dummy
# Comment:           
#
# Cycle: 0
# Number of Scans: 2
#
# Cycle: 0, Curve: 0
# Acquisition Date: 06/02/22 12:09:31 UTC
#
# ColumnLabels: energy counts/s
#
112  312.5
111.9  336.875
111.8  331.875
111.7  326.875
111.6  340
111.5  341.875
111.4  347.5
111.3  333.75
111.2  345
111.1  328.75
111  335.625
110.9  355.625
110.8  338.125
110.7  334.375
110.6  370.625
110.5  372.5
110.4  389.375
110.3  365.625
110.2  366.875
110.1  356.25
110  358.75
109.9  373.125
109.8  396.25
109.7  429.375
109.6  388.125
109.5  414.375
109.4  422.5
109.3  458.125
109.2  456.25
109.1  509.375
109  526.25
108.9  554.375
108.8  585
108.7  610.625
108.6  681.875
108.5  723.125
108.4  757.5
108.3  851.25
108.2  925.625
108.1  958.75
108  1098.125
107.9  1072.5
107.8  1130
107.7  1231.25
107.6  1305
107.5  1316.875
107.4  1345.625
107.3  1378.75
107.2  1455.625
107.1  1492.5
107  1359.375
106.9  1379.375
106.8  1376.875
106.7  1359.375
106.6  1343.75
106.5  1258.75
106.4  1136.875
106.3  1120
106.2  1085.625
106.1  1003.75
106  965.625
105.9  933.125
105.8  807.5
105.7  773.125
105.6  755.625
105.5  647.5
105.4  620.625
105.3  586.875
105.2  537.5
105.1  526.875
105  518.75
104.9  466.25
104.8  456.875
104.7  451.875
104.6  411.25
104.5  395.625
104.4  377.5
104.3  371.875
104.2  361.875
104.1  379.375
104  356.875
103.9  370.625
103.8  336.25
103.7  365
103.6  324.375
103.5  343.75
103.4  320.625
103.3  353.125
103.2  321.875
103.1  328.125
103  331.875
102.9  341.875
102.8  338.125
102.7  297.5
102.6  343.75
102.5  303.75
102.4  313.125
102.3  310
102.2  318.75
102.1  311.25
102  326.875
101.9  305
101.8  332.5
101.7  314.375
101.6  333.75
101.5  315.625
101.4  312.5
101.3  324.375
101.2  326.875
101.1  326.875
101  325.625

# Region:            C1s
# Acquisition Date:  06/02/22 12:17:10 UTC
# Analysis Method:   XPS
# Analyzer:          Phoibos 100 R6
# Analyzer Lens:     LargeArea:1.5kV
# Analyzer Slit:     1:0.2x20\B:open
# Scan Mode:         FixedAnalyzerTransmission
# Curves/Scan:       1
# Values/Curve:      141
# Dwell Time:        0.8
# Excitation Energy: 1486.61
# Binding Energy:    297
# Pass Energy:       30
# Bias Voltage:      90
# Detector Voltage:  2600
# Eff. Workfunction: 4.309
# Source:            X-Ray Dummy
# Comment:           
#
# Cycle: 0
# Number of Scans: 5
#
# Cycle: 0, Curve: 0
# Acquisition Date: 06/02/22 12:17:10 UTC
#
# ColumnLabels: energy counts/s
#
297  571.25
296.9  586.5
296.8  589.25
296.7  604
296.6  581
296.5  578
296.4  566.75
296.3  565
296.2  573
296.1  569
296  578
295.9  585.5
295.8  588
295.7  571.25
295.6  576.75
295.5  574.75
295.4  582.75
295.3  577
295.2  580.5
295.1  555
295  587
294.9  563.25
294.8  574.25
294.7  587.25
294.6  571.5
294.5  589
294.4  594.25
294.3  573.75
294.2  577.75
294.1  574.75
294  570.5
293.9  584.5
293.8  582
293.7  568.25
293.6  572.25
293.5  575.5
293.4  571.75
293.3  586.5
293.2  558.5
293.1  572.25
293  592.75
292.9  598.75
292.8  600.75
292.7  594.75
292.6  585.5
292.5  576.75
292.4  593.75
292.3  576.25
292.2  573.25
292.1  589.25
292  588.25
291.9  589
291.8  571
291.7  602
291.6  625
291.5  613.75
291.4  595.5
291.3  603
291.2  618.25
291.1  609.75
291  601.75
290.9  597.75
290.8  609.75
290.7  635.75
290.6  634
290.5  635
290.4  652.5
290.3  655.5
290.2  631.5
290.1  647.25
290  663
289.9  669.25
289.8  676.25
289.7  685
289.6  700.75
289.5  686.75
289.4  691.5
289.3  719
289.2  707.75
289.1  758.5
289  741.25
288.9  759
288.8  770.5
288.7  764
288.6  775.75
288.5  794.75
288.4  796.5
288.3  789.75
288.2  792.5
288.1  796.5
288  782.75
287.9  752.5
287.8  764
287.7  745.75
287.6  709.75
287.5  736.5
287.4  719
287.3  700
287.2  715
287.1  649
287  657.75
286.9  620.75
286.8  644.25
286.7  630.75
286.6  614.25
286.5  616.75
286.4  627
286.3  573
286.2  595.75
286.1  576.25
286  579.5
285.9  588.5
285.8  583
285.7  579.75
285.6  609.5
285.5  576.75
285.4  580.25
285.3  574.5
285.2  573
285.1  580.75
285  557
284.9  569.75
284.8  591
284.7  582
284.6  582
284.5  583
284.4  580
284.3  582.5
284.2  539
284.1  584
284  578.25
283.9  571.5
283.8  550.25
283.7  580.25
283.6  611
283.5  578
283.4  596.5
283.3  572.75
283.2  583.25
283.1  589.25
283  585.25

