# Created by:        SpecsLab Prodigy, Version 4.60.2-r85849 
#
# XY-Serializer Export Settings:
#   Comment Prefix:           #
#   Output meta data:         yes
#   Energy Axis:              Binding Energy
#   Count Rate:               Counts per Second
#   Separate Scan Data:       no
#   Separate Channel Data:    no
#   External Channel Data:    yes
#   Transmission Function:    no
#   ErrorBar:                 no
#   Operation Results:        yes
#   Time Zone Format:         UTC
#
# Group:             Spectrum Group
#
# Region:            Na1s
# Acquisition Date:  06/02/22 09:38:15 UTC
# Analysis Method:   XPS
# Analyzer:          Phoibos 100 R6
# Analyzer Lens:     LargeArea:1.5kV
# Analyzer Slit:     1:0.2x20\B:open
# Scan Mode:         FixedAnalyzerTransmission
# Curves/Scan:       1
# Values/Curve:      251
# Dwell Time:        0.8
# Excitation Energy: 1486.61
# Binding Energy:    1085
# Pass Energy:       30
# Bias Voltage:      90
# Detector Voltage:  2600
# Eff. Workfunction: 4.309
# Source:            X-Ray Dummy
# Comment:           
#
# Cycle: 0
# Number of Scans: 3
#
# Cycle: 0, Curve: 0
# Acquisition Date: 06/02/22 09:38:15 UTC
#
# ColumnLabels: energy counts/s
#
1085  3474.5833
1084.9  3527.9167
1084.8  3485.8333
1084.7  3536.25
1084.6  3465
1084.5  3482.0833
1084.4  3520.4167
1084.3  3512.5
1084.2  3536.25
1084.1  3461.6667
1084  3467.5
1083.9  3523.3333
1083.8  3523.75
1083.7  3497.0833
1083.6  3482.9167
1083.5  3469.5833
1083.4  3520
1083.3  3577.5
1083.2  3480.8333
1083.1  3473.75
1083  3486.6667
1082.9  3521.6667
1082.8  3471.25
1082.7  3506.6667
1082.6  3512.0833
1082.5  3544.5833
1082.4  3453.75
1082.3  3445
1082.2  3521.25
1082.1  3511.25
1082  3504.1667
1081.9  3442.9167
1081.8  3530.8333
1081.7  3513.75
1081.6  3569.1667
1081.5  3523.3333
1081.4  3496.6667
1081.3  3532.5
1081.2  3480.8333
1081.1  3485
1081  3486.25
1080.9  3543.3333
1080.8  3548.3333
1080.7  3478.75
1080.6  3437.5
1080.5  3512.0833
1080.4  3453.75
1080.3  3420.4167
1080.2  3520.4167
1080.1  3497.0833
1080  3438.3333
1079.9  3492.5
1079.8  3485.8333
1079.7  3492.0833
1079.6  3478.75
1079.5  3567.0833
1079.4  3530
1079.3  3578.3333
1079.2  3527.0833
1079.1  3495.4167
1079  3521.25
1078.9  3443.3333
1078.8  3440.8333
1078.7  3533.3333
1078.6  3527.5
1078.5  3495
1078.4  3522.9167
1078.3  3444.5833
1078.2  3423.3333
1078.1  3528.75
1078  3480
1077.9  3555
1077.8  3477.5
1077.7  3425
1077.6  3438.3333
1077.5  3565.4167
1077.4  3472.0833
1077.3  3527.9167
1077.2  3463.3333
1077.1  3544.5833
1077  3498.75
1076.9  3486.25
1076.8  3555
1076.7  3523.3333
1076.6  3448.75
1076.5  3512.9167
1076.4  3441.25
1076.3  3569.5833
1076.2  3537.5
1076.1  3504.5833
1076  3468.75
1075.9  3478.75
1075.8  3541.6667
1075.7  3487.0833
1075.6  3486.6667
1075.5  3472.5
1075.4  3463.3333
1075.3  3507.5
1075.2  3560.4167
1075.1  3556.25
1075  3479.5833
1074.9  3441.6667
1074.8  3484.5833
1074.7  3431.25
1074.6  3511.25
1074.5  3466.25
1074.4  3547.5
1074.3  3548.75
1074.2  3475.8333
1074.1  3484.1667
1074  3530.4167
1073.9  3515
1073.8  3508.75
1073.7  3458.75
1073.6  3434.1667
1073.5  3564.1667
1073.4  3448.75
1073.3  3421.25
1073.2  3534.5833
1073.1  3509.1667
1073  3475.4167
1072.9  3519.5833
1072.8  3440
1072.7  3542.0833
1072.6  3482.5
1072.5  3479.1667
1072.4  3478.3333
1072.3  3472.0833
1072.2  3462.0833
1072.1  3530
1072  3422.5
1071.9  3494.1667
1071.8  3495.8333
1071.7  3508.3333
1071.6  3461.6667
1071.5  3474.1667
1071.4  3537.9167
1071.3  3471.6667
1071.2  3482.0833
1071.1  3534.1667
1071  3462.9167
1070.9  3492.0833
1070.8  3460.4167
1070.7  3411.6667
1070.6  3492.9167
1070.5  3479.1667
1070.4  3467.9167
1070.3  3501.6667
1070.2  3587.9167
1070.1  3432.0833
1070  3445.4167
1069.9  3422.0833
1069.8  3490
1069.7  3511.25
1069.6  3431.25
1069.5  3412.5
1069.4  3531.25
1069.3  3425.8333
1069.2  3476.25
1069.1  3474.1667
1069  3495
1068.9  3478.75
1068.8  3571.25
1068.7  3513.75
1068.6  3606.25
1068.5  3532.5
1068.4  3539.1667
1068.3  3420
1068.2  3529.5833
1068.1  3469.5833
1068  3461.6667
1067.9  3444.5833
1067.8  3511.25
1067.7  3492.0833
1067.6  3496.6667
1067.5  3440.4167
1067.4  3486.6667
1067.3  3463.3333
1067.2  3515
1067.1  3496.25
1067  3462.5
1066.9  3554.5833
1066.8  3457.5
1066.7  3517.5
1066.6  3503.3333
1066.5  3525
1066.4  3450.4167
1066.3  3558.3333
1066.2  3557.0833
1066.1  3508.3333
1066  3488.75
1065.9  3470.8333
1065.8  3564.5833
1065.7  3441.6667
1065.6  3505
1065.5  3566.6667
1065.4  3507.5
1065.3  3514.1667
1065.2  3460.4167
1065.1  3486.25
1065  3442.9167
1064.9  3452.5
1064.8  3531.6667
1064.7  3507.5
1064.6  3524.1667
1064.5  3540.4167
1064.4  3554.5833
1064.3  3507.0833
1064.2  3507.5
1064.1  3557.0833
1064  3479.1667
1063.9  3467.5
1063.8  3470.8333
1063.7  3437.0833
1063.6  3484.5833
1063.5  3485
1063.4  3490.8333
1063.3  3507.5
1063.2  3498.3333
1063.1  3487.9167
1063  3543.3333
1062.9  3525.4167
1062.8  3522.5
1062.7  3417.5
1062.6  3442.0833
1062.5  3504.5833
1062.4  3470.4167
1062.3  3470
1062.2  3548.75
1062.1  3493.75
1062  3502.5
1061.9  3435.8333
1061.8  3506.25
1061.7  3549.1667
1061.6  3524.1667
1061.5  3488.75
1061.4  3449.5833
1061.3  3434.1667
1061.2  3488.3333
1061.1  3435.4167
1061  3436.6667
1060.9  3474.1667
1060.8  3474.5833
1060.7  3455
1060.6  3458.75
1060.5  3486.25
1060.4  3521.6667
1060.3  3453.3333
1060.2  3449.1667
1060.1  3428.75
1060  3503.75

# Region:            F1s
# Acquisition Date:  06/02/22 09:40:58 UTC
# Analysis Method:   XPS
# Analyzer:          Phoibos 100 R6
# Analyzer Lens:     LargeArea:1.5kV
# Analyzer Slit:     1:0.2x20\B:open
# Scan Mode:         FixedAnalyzerTransmission
# Curves/Scan:       1
# Values/Curve:      201
# Dwell Time:        0.8
# Excitation Energy: 1486.61
# Binding Energy:    705
# Pass Energy:       30
# Bias Voltage:      90
# Detector Voltage:  2600
# Eff. Workfunction: 4.309
# Source:            X-Ray Dummy
# Comment:           
#
# Cycle: 0
# Number of Scans: 3
#
# Cycle: 0, Curve: 0
# Acquisition Date: 06/02/22 09:40:58 UTC
#
# ColumnLabels: energy counts/s
#
705  1745
704.9  1692.0833
704.8  1666.6667
704.7  1699.5833
704.6  1678.75
704.5  1694.5833
704.4  1750.4167
704.3  1701.25
704.2  1664.1667
704.1  1740.4167
704  1685.8333
703.9  1729.1667
703.8  1744.5833
703.7  1678.3333
703.6  1703.3333
703.5  1655.8333
703.4  1650
703.3  1702.5
703.2  1650
703.1  1639.5833
703  1680.4167
702.9  1686.25
702.8  1683.3333
702.7  1650.8333
702.6  1647.5
702.5  1750
702.4  1695
702.3  1647.9167
702.2  1690
702.1  1679.1667
702  1693.75
701.9  1712.0833
701.8  1713.3333
701.7  1676.25
701.6  1694.1667
701.5  1650.8333
701.4  1697.5
701.3  1707.5
701.2  1637.0833
701.1  1710
701  1688.3333
700.9  1665.8333
700.8  1686.25
700.7  1748.3333
700.6  1679.5833
700.5  1703.75
700.4  1690.4167
700.3  1679.5833
700.2  1649.5833
700.1  1702.9167
700  1700
699.9  1671.6667
699.8  1709.5833
699.7  1636.25
699.6  1650
699.5  1736.25
699.4  1703.3333
699.3  1697.5
699.2  1683.75
699.1  1689.5833
699  1696.25
698.9  1648.75
698.8  1664.1667
698.7  1680.4167
698.6  1663.3333
698.5  1718.3333
698.4  1672.0833
698.3  1680.8333
698.2  1724.1667
698.1  1707.5
698  1710
697.9  1722.0833
697.8  1671.25
697.7  1704.5833
697.6  1663.3333
697.5  1663.75
697.4  1663.3333
697.3  1685.8333
697.2  1677.0833
697.1  1646.25
697  1677.5
696.9  1685.4167
696.8  1702.0833
696.7  1640.8333
696.6  1699.1667
696.5  1717.0833
696.4  1662.5
696.3  1737.0833
696.2  1675
696.1  1702.0833
696  1677.0833
695.9  1673.75
695.8  1692.9167
695.7  1670.4167
695.6  1656.25
695.5  1692.9167
695.4  1738.75
695.3  1651.6667
695.2  1697.9167
695.1  1698.3333
695  1715
694.9  1711.6667
694.8  1700.8333
694.7  1633.3333
694.6  1638.75
694.5  1696.6667
694.4  1652.9167
694.3  1667.0833
694.2  1711.25
694.1  1709.5833
694  1705
693.9  1687.9167
693.8  1685
693.7  1696.6667
693.6  1631.25
693.5  1620.8333
693.4  1665
693.3  1692.9167
693.2  1664.1667
693.1  1722.5
693  1661.6667
692.9  1680.8333
692.8  1697.5
692.7  1656.6667
692.6  1701.6667
692.5  1666.6667
692.4  1690.4167
692.3  1663.3333
692.2  1692.9167
692.1  1676.25
692  1678.75
691.9  1699.1667
691.8  1721.6667
691.7  1652.0833
691.6  1689.1667
691.5  1639.1667
691.4  1661.6667
691.3  1727.0833
691.2  1715.4167
691.1  1701.25
691  1673.3333
690.9  1669.1667
690.8  1658.3333
690.7  1724.1667
690.6  1685
690.5  1700.4167
690.4  1733.3333
690.3  1666.6667
690.2  1676.6667
690.1  1644.1667
690  1682.0833
689.9  1720.4167
689.8  1663.3333
689.7  1647.0833
689.6  1676.6667
689.5  1681.6667
689.4  1724.5833
689.3  1657.9167
689.2  1699.1667
689.1  1687.0833
689  1660.8333
688.9  1642.5
688.8  1679.5833
688.7  1678.75
688.6  1681.6667
688.5  1703.75
688.4  1675.4167
688.3  1659.1667
688.2  1665.4167
688.1  1681.6667
688  1699.5833
687.9  1685
687.8  1668.3333
687.7  1677.5
687.6  1673.3333
687.5  1660
687.4  1686.6667
687.3  1727.0833
687.2  1717.0833
687.1  1711.25
687  1641.6667
686.9  1697.9167
686.8  1692.5
686.7  1654.1667
686.6  1641.25
686.5  1695.4167
686.4  1656.25
686.3  1709.1667
686.2  1645.4167
686.1  1678.3333
686  1681.6667
685.9  1683.75
685.8  1702.9167
685.7  1642.9167
685.6  1675
685.5  1731.25
685.4  1675.8333
685.3  1723.3333
685.2  1654.1667
685.1  1690.8333
685  1669.1667

# Region:            C1s
# Acquisition Date:  06/02/22 09:49:32 UTC
# Analysis Method:   XPS
# Analyzer:          Phoibos 100 R6
# Analyzer Lens:     LargeArea:1.5kV
# Analyzer Slit:     1:0.2x20\B:open
# Scan Mode:         FixedAnalyzerTransmission
# Curves/Scan:       1
# Values/Curve:      211
# Dwell Time:        0.8
# Excitation Energy: 1486.61
# Binding Energy:    297
# Pass Energy:       30
# Bias Voltage:      90
# Detector Voltage:  2600
# Eff. Workfunction: 4.309
# Source:            X-Ray Dummy
# Comment:           
#
# Cycle: 0
# Number of Scans: 5
#
# Cycle: 0, Curve: 0
# Acquisition Date: 06/02/22 09:49:32 UTC
#
# ColumnLabels: energy counts/s
#
297  583.5
296.9  570
296.8  561
296.7  597.5
296.6  578
296.5  574
296.4  586
296.3  559.75
296.2  574.5
296.1  580.75
296  554.5
295.9  570.25
295.8  565.5
295.7  552.75
295.6  537
295.5  568
295.4  590.75
295.3  561.25
295.2  579.5
295.1  577
295  555.5
294.9  543
294.8  576
294.7  564.5
294.6  565.25
294.5  555.5
294.4  534.75
294.3  552.5
294.2  579.25
294.1  554
294  557.75
293.9  558.5
293.8  558.25
293.7  527.75
293.6  574.5
293.5  541
293.4  550
293.3  555.75
293.2  556
293.1  578.5
293  570.5
292.9  548
292.8  578.25
292.7  560.25
292.6  546.25
292.5  570
292.4  534.75
292.3  566
292.2  537.75
292.1  549
292  551
291.9  568.25
291.8  555.25
291.7  541.25
291.6  562.5
291.5  558.75
291.4  555.75
291.3  585.75
291.2  574.75
291.1  555.5
291  553.25
290.9  561.75
290.8  569
290.7  559.5
290.6  554.25
290.5  562
290.4  558.75
290.3  559.75
290.2  563.25
290.1  560
290  556.5
289.9  575.5
289.8  584.75
289.7  577.5
289.6  577
289.5  556.25
289.4  578
289.3  579.75
289.2  593.5
289.1  585.5
289  569.5
288.9  553.25
288.8  570.25
288.7  562.25
288.6  572.5
288.5  570.5
288.4  573.25
288.3  555.5
288.2  577.75
288.1  571
288  552.5
287.9  590.25
287.8  576.5
287.7  565.75
287.6  577.25
287.5  585.5
287.4  565.5
287.3  577.75
287.2  577.5
287.1  576.75
287  551.25
286.9  567
286.8  567
286.7  573.5
286.6  588
286.5  567.25
286.4  575.25
286.3  564
286.2  560
286.1  580
286  564.25
285.9  603.5
285.8  587.25
285.7  583
285.6  575
285.5  570.5
285.4  576.5
285.3  588.5
285.2  568.5
285.1  577.25
285  564.25
284.9  555.5
284.8  572.75
284.7  562.5
284.6  537.75
284.5  574.5
284.4  569.5
284.3  561.75
284.2  579.25
284.1  575
284  556.5
283.9  564.25
283.8  583.25
283.7  571.5
283.6  570
283.5  558.5
283.4  553.75
283.3  569
283.2  561.5
283.1  581.5
283  583
282.9  553
282.8  574
282.7  582.25
282.6  577.25
282.5  556.75
282.4  573.25
282.3  565.25
282.2  589
282.1  586.25
282  572.25
281.9  565.5
281.8  575.75
281.7  591.75
281.6  578.5
281.5  567.5
281.4  555.25
281.3  588.5
281.2  570.25
281.1  575.5
281  575.75
280.9  580.25
280.8  564.75
280.7  571.5
280.6  560.5
280.5  561
280.4  567.25
280.3  581.5
280.2  549.5
280.1  581.5
280  544
279.9  552
279.8  573.25
279.7  580.75
279.6  580.5
279.5  549
279.4  557
279.3  576
279.2  560.25
279.1  571.75
279  578.5
278.9  553.25
278.8  587.75
278.7  583.25
278.6  584
278.5  536.75
278.4  544.25
278.3  564.75
278.2  567.5
278.1  563.75
278  585.75
277.9  566.5
277.8  548.5
277.7  561.75
277.6  560.75
277.5  560.5
277.4  566
277.3  576.5
277.2  595
277.1  562
277  569.5
276.9  570.25
276.8  591
276.7  557.5
276.6  568.25
276.5  553.5
276.4  556.5
276.3  554.25
276.2  579
276.1  550.25
276  555.25

# Region:            N1s
# Acquisition Date:  06/02/22 09:31:59 UTC
# Analysis Method:   XPS
# Analyzer:          Phoibos 100 R6
# Analyzer Lens:     LargeArea:1.5kV
# Analyzer Slit:     1:0.2x20\B:open
# Scan Mode:         FixedAnalyzerTransmission
# Curves/Scan:       1
# Values/Curve:      121
# Dwell Time:        0.8
# Excitation Energy: 1486.61
# Binding Energy:    409
# Pass Energy:       30
# Bias Voltage:      90
# Detector Voltage:  2600
# Eff. Workfunction: 4.309
# Source:            X-Ray Dummy
# Comment:           
#
# Cycle: 0
# Number of Scans: 2
#
# Cycle: 0, Curve: 0
# Acquisition Date: 06/02/22 09:31:59 UTC
#
# ColumnLabels: energy counts/s
#
409  627.5
408.9  636.25
408.8  640.625
408.7  627.5
408.6  611.25
408.5  609.375
408.4  630
408.3  622.5
408.2  651.25
408.1  603.75
408  650.625
407.9  646.875
407.8  618.125
407.7  609.375
407.6  623.125
407.5  603.75
407.4  625
407.3  617.5
407.2  623.75
407.1  635
407  608.75
406.9  603.75
406.8  660.625
406.7  590.625
406.6  616.875
406.5  630.625
406.4  626.25
406.3  620
406.2  593.75
406.1  605.625
406  644.375
405.9  650
405.8  587.5
405.7  606.875
405.6  634.375
405.5  649.375
405.4  638.75
405.3  638.125
405.2  627.5
405.1  621.875
405  615.625
404.9  610.625
404.8  628.125
404.7  640.625
404.6  627.5
404.5  601.25
404.4  633.125
404.3  613.125
404.2  633.125
404.1  648.75
404  628.75
403.9  651.875
403.8  600
403.7  606.25
403.6  633.125
403.5  598.75
403.4  653.75
403.3  612.5
403.2  645
403.1  618.125
403  634.375
402.9  605
402.8  636.875
402.7  653.125
402.6  661.875
402.5  605.625
402.4  624.375
402.3  650.625
402.2  640.625
402.1  640.625
402  628.125
401.9  646.875
401.8  642.5
401.7  618.75
401.6  649.375
401.5  650.625
401.4  603.125
401.3  619.375
401.2  620
401.1  616.875
401  631.25
400.9  621.875
400.8  660
400.7  640.625
400.6  625.625
400.5  626.875
400.4  605.625
400.3  654.375
400.2  603.125
400.1  635
400  629.375
399.9  644.375
399.8  643.75
399.7  651.25
399.6  630.625
399.5  610
399.4  609.375
399.3  621.25
399.2  598.75
399.1  620.625
399  631.875
398.9  617.5
398.8  616.875
398.7  670
398.6  650
398.5  598.125
398.4  613.125
398.3  625.625
398.2  626.875
398.1  620.625
398  618.125
397.9  611.25
397.8  640.625
397.7  670.625
397.6  645.625
397.5  622.5
397.4  609.375
397.3  593.125
397.2  688.75
397.1  631.875
397  626.875

# Region:            Ir4d5/2
# Acquisition Date:  06/02/22 09:34:50 UTC
# Analysis Method:   XPS
# Analyzer:          Phoibos 100 R6
# Analyzer Lens:     LargeArea:1.5kV
# Analyzer Slit:     1:0.2x20\B:open
# Scan Mode:         FixedAnalyzerTransmission
# Curves/Scan:       1
# Values/Curve:      211
# Dwell Time:        0.8
# Excitation Energy: 1486.61
# Binding Energy:    318
# Pass Energy:       30
# Bias Voltage:      90
# Detector Voltage:  2600
# Eff. Workfunction: 4.309
# Source:            X-Ray Dummy
# Comment:           
#
# Cycle: 0
# Number of Scans: 2
#
# Cycle: 0, Curve: 0
# Acquisition Date: 06/02/22 09:34:50 UTC
#
# ColumnLabels: energy counts/s
#
318  581.25
317.9  565
317.8  588.125
317.7  564.375
317.6  558.75
317.5  581.875
317.4  527.5
317.3  581.875
317.2  583.75
317.1  551.875
317  521.25
316.9  584.375
316.8  570
316.7  563.125
316.6  580
316.5  571.25
316.4  605.625
316.3  565.625
316.2  574.375
316.1  551.875
316  594.375
315.9  583.125
315.8  568.75
315.7  594.375
315.6  545
315.5  566.875
315.4  558.75
315.3  586.875
315.2  563.125
315.1  569.375
315  579.375
314.9  561.25
314.8  557.5
314.7  553.75
314.6  559.375
314.5  553.125
314.4  549.375
314.3  577.5
314.2  571.875
314.1  586.25
314  574.375
313.9  560.625
313.8  593.125
313.7  533.75
313.6  560
313.5  574.375
313.4  573.75
313.3  545.625
313.2  567.5
313.1  562.5
313  571.875
312.9  558.75
312.8  581.875
312.7  556.25
312.6  542.5
312.5  590
312.4  555.625
312.3  595
312.2  522.5
312.1  581.875
312  593.125
311.9  571.25
311.8  555.625
311.7  585.625
311.6  517.5
311.5  561.875
311.4  584.375
311.3  590.625
311.2  573.75
311.1  573.125
311  566.25
310.9  549.375
310.8  554.375
310.7  543.75
310.6  571.25
310.5  574.375
310.4  550.625
310.3  548.75
310.2  560.625
310.1  561.25
310  561.25
309.9  558.75
309.8  598.75
309.7  545.625
309.6  555.625
309.5  588.125
309.4  564.375
309.3  524.375
309.2  556.875
309.1  561.875
309  555
308.9  555
308.8  538.125
308.7  570
308.6  561.875
308.5  581.25
308.4  551.875
308.3  580
308.2  558.75
308.1  569.375
308  551.25
307.9  573.125
307.8  585
307.7  580
307.6  557.5
307.5  532.5
307.4  567.5
307.3  568.125
307.2  591.875
307.1  546.25
307  589.375
306.9  587.5
306.8  579.375
306.7  575
306.6  533.75
306.5  576.875
306.4  598.75
306.3  561.25
306.2  548.75
306.1  569.375
306  558.125
305.9  571.25
305.8  568.125
305.7  563.75
305.6  531.875
305.5  577.5
305.4  585.625
305.3  565.625
305.2  571.875
305.1  590.625
305  581.875
304.9  546.875
304.8  576.875
304.7  611.875
304.6  518.75
304.5  613.75
304.4  585.625
304.3  551.25
304.2  578.125
304.1  586.25
304  557.5
303.9  550.625
303.8  553.125
303.7  581.875
303.6  556.875
303.5  575
303.4  578.125
303.3  566.25
303.2  541.875
303.1  561.25
303  571.25
302.9  560.625
302.8  557.5
302.7  596.875
302.6  543.75
302.5  565
302.4  553.75
302.3  523.125
302.2  570
302.1  578.75
302  556.25
301.9  580
301.8  551.875
301.7  595.625
301.6  567.5
301.5  548.75
301.4  563.125
301.3  579.375
301.2  540
301.1  576.875
301  545.625
300.9  585.625
300.8  578.125
300.7  559.375
300.6  584.375
300.5  532.5
300.4  545.625
300.3  561.875
300.2  551.25
300.1  548.125
300  572.5
299.9  573.75
299.8  562.5
299.7  553.125
299.6  561.25
299.5  560.625
299.4  531.875
299.3  587.5
299.2  556.25
299.1  537.5
299  560.625
298.9  598.75
298.8  590
298.7  578.125
298.6  535
298.5  570.625
298.4  581.875
298.3  597.5
298.2  555
298.1  561.25
298  560.625
297.9  553.75
297.8  521.875
297.7  567.5
297.6  548.125
297.5  566.25
297.4  595
297.3  576.875
297.2  560
297.1  587.5
297  578.75

# Region:            overview
# Acquisition Date:  06/02/22 09:17:41 UTC
# Analysis Method:   XPS
# Analyzer:          Phoibos 100 R6
# Analyzer Lens:     MediumArea:1.5kV
# Analyzer Slit:     1:0.2x20\B:open
# Scan Mode:         FixedAnalyzerTransmission
# Curves/Scan:       1
# Values/Curve:      1205
# Dwell Time:        0.2
# Excitation Energy: 1486.61
# Binding Energy:    1200
# Pass Energy:       50
# Bias Voltage:      90
# Detector Voltage:  2600
# Eff. Workfunction: 4.309
# Source:            X-Ray Dummy
# Comment:           
#
# Cycle: 0
# Number of Scans: 1
#
# Cycle: 0, Curve: 0
# Acquisition Date: 06/02/22 09:17:41 UTC
#
# ColumnLabels: energy counts/s
#
1200  2945
1199  2860
1198  3105
1197  3105
1196  3000
1195  3265
1194  3080
1193  2690
1192  2720
1191  3025
1190  2695
1189  2765
1188  2680
1187  2935
1186  2840
1185  3010
1184  2730
1183  2450
1182  2875
1181  3060
1180  2880
1179  2640
1178  2745
1177  2860
1176  2690
1175  3005
1174  2655
1173  2805
1172  2950
1171  2640
1170  2690
1169  2705
1168  2775
1167  2675
1166  2735
1165  2700
1164  2480
1163  2665
1162  2560
1161  2650
1160  2425
1159  2890
1158  2600
1157  2655
1156  2725
1155  2540
1154  2500
1153  2660
1152  2775
1151  2845
1150  2565
1149  2575
1148  2515
1147  2645
1146  2580
1145  2410
1144  2535
1143  2525
1142  2500
1141  2505
1140  2505
1139  2485
1138  2570
1137  2555
1136  2410
1135  2525
1134  2460
1133  2615
1132  2440
1131  2325
1130  2550
1129  2445
1128  2605
1127  2620
1126  2315
1125  2460
1124  2440
1123  2625
1122  2485
1121  2315
1120  2435
1119  2300
1118  2555
1117  2555
1116  2465
1115  2225
1114  2400
1113  2490
1112  2275
1111  2710
1110  2370
1109  2330
1108  2295
1107  2235
1106  2330
1105  2305
1104  2330
1103  2395
1102  2535
1101  2525
1100  2440
1099  2330
1098  2385
1097  2300
1096  2245
1095  2320
1094  2365
1093  2450
1092  2225
1091  2445
1090  2445
1089  2250
1088  2220
1087  2255
1086  2205
1085  2310
1084  2295
1083  2425
1082  2255
1081  2480
1080  2335
1079  2245
1078  2390
1077  2195
1076  2285
1075  2430
1074  2300
1073  2450
1072  2285
1071  2335
1070  2180
1069  2300
1068  2260
1067  2535
1066  2200
1065  2330
1064  2015
1063  2355
1062  2300
1061  2520
1060  2385
1059  2245
1058  2350
1057  2340
1056  2330
1055  2320
1054  2365
1053  2215
1052  2520
1051  2100
1050  2270
1049  2250
1048  2325
1047  2215
1046  2260
1045  2330
1044  2435
1043  2375
1042  2270
1041  2600
1040  2220
1039  2380
1038  2185
1037  2255
1036  2300
1035  2525
1034  2370
1033  2220
1032  2395
1031  2585
1030  2130
1029  2385
1028  2260
1027  2315
1026  2330
1025  2450
1024  2520
1023  2210
1022  2615
1021  2690
1020  2355
1019  2470
1018  2360
1017  2445
1016  2590
1015  2315
1014  2240
1013  2440
1012  2305
1011  2285
1010  2230
1009  2735
1008  2510
1007  2445
1006  2700
1005  2715
1004  2820
1003  2605
1002  2830
1001  2535
1000  2485
999  2310
998  2425
997  2030
996  2120
995  2175
994  2230
993  2035
992  2450
991  2195
990  2205
989  2415
988  2400
987  2955
986  2925
985  3150
984  3390
983  3325
982  3035
981  2925
980  2500
979  2205
978  2275
977  2070
976  1960
975  1940
974  1760
973  1595
972  1630
971  1320
970  1455
969  1425
968  1515
967  1325
966  1400
965  1385
964  1500
963  1325
962  1475
961  1290
960  1505
959  1350
958  1320
957  1450
956  1305
955  1450
954  1425
953  1475
952  1470
951  1410
950  1285
949  1425
948  1390
947  1485
946  1175
945  1430
944  1385
943  1440
942  1395
941  1250
940  1445
939  1435
938  1345
937  1420
936  1425
935  1425
934  1365
933  1355
932  1470
931  1230
930  1375
929  1485
928  1400
927  1375
926  1380
925  1470
924  1415
923  1270
922  1295
921  1300
920  1265
919  1270
918  1250
917  1280
916  1415
915  1375
914  1505
913  1380
912  1410
911  1435
910  1480
909  1380
908  1380
907  1355
906  1265
905  1495
904  1360
903  1430
902  1250
901  1220
900  1240
899  1370
898  1420
897  1325
896  1575
895  1365
894  1365
893  1555
892  1355
891  1390
890  1275
889  1295
888  1395
887  1415
886  1370
885  1490
884  1410
883  1350
882  1310
881  1485
880  1595
879  1365
878  1330
877  1365
876  1375
875  1525
874  1445
873  1325
872  1415
871  1470
870  1450
869  1280
868  1235
867  1495
866  1310
865  1310
864  1295
863  1355
862  1475
861  1355
860  1365
859  1460
858  1255
857  1460
856  1400
855  1385
854  1330
853  1315
852  1335
851  1415
850  1360
849  1385
848  1425
847  1560
846  1370
845  1380
844  1430
843  1450
842  1310
841  1280
840  1375
839  1475
838  1190
837  1510
836  1280
835  1435
834  1455
833  1440
832  1450
831  1460
830  1410
829  1280
828  1185
827  1295
826  1345
825  1480
824  1305
823  1425
822  1185
821  1390
820  1335
819  1385
818  1365
817  1365
816  1395
815  1320
814  1460
813  1390
812  1445
811  1305
810  1455
809  1360
808  1350
807  1410
806  1655
805  1275
804  1315
803  1330
802  1460
801  1245
800  1320
799  1370
798  1270
797  1540
796  1350
795  1485
794  1430
793  1425
792  1445
791  1380
790  1360
789  1420
788  1400
787  1375
786  1480
785  1545
784  1400
783  1470
782  1360
781  1470
780  1500
779  1395
778  1450
777  1410
776  1345
775  1475
774  1430
773  1400
772  1400
771  1395
770  1335
769  1425
768  1425
767  1390
766  1470
765  1640
764  1370
763  1295
762  1485
761  1395
760  1555
759  1495
758  1435
757  1365
756  1240
755  1540
754  1370
753  1405
752  1440
751  1390
750  1605
749  1440
748  1510
747  1455
746  1470
745  1530
744  1350
743  1275
742  1455
741  1535
740  1490
739  1400
738  1510
737  1505
736  1490
735  1650
734  1455
733  1410
732  1340
731  1395
730  1475
729  1570
728  1440
727  1600
726  1360
725  1540
724  1345
723  1370
722  1485
721  1530
720  1565
719  1420
718  1410
717  1410
716  1495
715  1530
714  1605
713  1490
712  1545
711  1375
710  1485
709  1485
708  1485
707  1695
706  1395
705  1480
704  1380
703  1455
702  1455
701  1570
700  1580
699  1640
698  1455
697  1610
696  1480
695  1560
694  1485
693  1430
692  1565
691  1660
690  1515
689  1425
688  1615
687  1600
686  1600
685  1510
684  1630
683  1555
682  1485
681  1440
680  1520
679  1645
678  1635
677  1660
676  1565
675  1470
674  1470
673  1635
672  1480
671  1505
670  1655
669  1610
668  1505
667  1535
666  1705
665  1570
664  1710
663  1670
662  1520
661  1545
660  1545
659  1485
658  1520
657  1625
656  1565
655  1525
654  1540
653  1600
652  1625
651  1385
650  1600
649  1665
648  1575
647  1765
646  1620
645  1610
644  1535
643  1650
642  1640
641  1655
640  1665
639  1730
638  1535
637  1685
636  1745
635  1725
634  1595
633  1685
632  1615
631  1585
630  1710
629  1515
628  1660
627  1610
626  1615
625  1595
624  1690
623  1555
622  1635
621  1515
620  1745
619  1730
618  1665
617  1755
616  1660
615  1630
614  1575
613  1740
612  1700
611  1760
610  1615
609  1525
608  1605
607  1780
606  1700
605  1565
604  1670
603  1770
602  1630
601  1715
600  1860
599  1685
598  1800
597  1610
596  1650
595  1760
594  1835
593  1680
592  1750
591  1700
590  1685
589  1695
588  1835
587  1650
586  1730
585  1675
584  1840
583  1890
582  1695
581  1860
580  1755
579  1730
578  1870
577  1795
576  1870
575  1700
574  1770
573  1615
572  1695
571  1710
570  1480
569  1620
568  1875
567  1665
566  2035
565  1925
564  1820
563  1960
562  1960
561  2095
560  2080
559  2000
558  2285
557  1975
556  1785
555  1890
554  1655
553  1565
552  1650
551  1565
550  1570
549  1435
548  1395
547  1285
546  1295
545  1195
544  1050
543  855
542  1180
541  1000
540  1140
539  1495
538  3325
537  7385
536  8870
535  5490
534  2430
533  1235
532  1030
531  965
530  925
529  900
528  1130
527  1255
526  1440
525  1440
524  885
523  845
522  815
521  925
520  810
519  715
518  770
517  765
516  825
515  750
514  850
513  700
512  810
511  785
510  670
509  820
508  780
507  710
506  700
505  740
504  790
503  715
502  800
501  835
500  710
499  625
498  850
497  705
496  700
495  780
494  740
493  875
492  795
491  745
490  710
489  745
488  795
487  855
486  705
485  795
484  685
483  710
482  715
481  640
480  775
479  645
478  725
477  865
476  820
475  735
474  700
473  790
472  770
471  825
470  680
469  835
468  885
467  810
466  790
465  800
464  725
463  790
462  760
461  625
460  605
459  785
458  580
457  780
456  730
455  825
454  695
453  695
452  730
451  740
450  710
449  735
448  695
447  660
446  810
445  730
444  630
443  900
442  725
441  770
440  810
439  695
438  750
437  685
436  845
435  735
434  710
433  800
432  645
431  720
430  595
429  605
428  690
427  820
426  660
425  730
424  680
423  680
422  740
421  790
420  750
419  715
418  795
417  725
416  655
415  815
414  650
413  765
412  880
411  750
410  820
409  795
408  775
407  690
406  890
405  850
404  825
403  605
402  810
401  740
400  700
399  750
398  735
397  705
396  710
395  680
394  770
393  660
392  675
391  670
390  685
389  835
388  725
387  625
386  770
385  710
384  810
383  715
382  755
381  685
380  660
379  680
378  685
377  655
376  730
375  770
374  975
373  775
372  670
371  740
370  685
369  785
368  680
367  705
366  710
365  670
364  820
363  735
362  730
361  795
360  720
359  640
358  760
357  665
356  800
355  775
354  715
353  690
352  710
351  890
350  790
349  725
348  690
347  725
346  725
345  730
344  750
343  715
342  770
341  830
340  785
339  760
338  740
337  735
336  775
335  690
334  780
333  665
332  745
331  720
330  810
329  690
328  655
327  685
326  660
325  795
324  710
323  635
322  740
321  645
320  655
319  680
318  750
317  795
316  700
315  645
314  830
313  735
312  755
311  735
310  760
309  710
308  610
307  730
306  715
305  840
304  755
303  815
302  730
301  725
300  790
299  685
298  795
297  765
296  695
295  810
294  775
293  735
292  640
291  715
290  795
289  745
288  820
287  740
286  720
285  715
284  840
283  810
282  715
281  785
280  710
279  815
278  770
277  665
276  750
275  860
274  665
273  800
272  785
271  790
270  780
269  840
268  725
267  765
266  755
265  635
264  695
263  735
262  890
261  850
260  810
259  865
258  705
257  750
256  775
255  815
254  750
253  675
252  630
251  765
250  780
249  825
248  805
247  875
246  835
245  885
244  745
243  775
242  805
241  830
240  795
239  725
238  930
237  710
236  780
235  970
234  750
233  720
232  770
231  795
230  770
229  885
228  825
227  810
226  710
225  775
224  745
223  730
222  845
221  810
220  880
219  645
218  715
217  770
216  760
215  745
214  650
213  715
212  755
211  725
210  755
209  810
208  815
207  675
206  875
205  820
204  840
203  900
202  805
201  740
200  820
199  910
198  800
197  795
196  805
195  885
194  700
193  865
192  915
191  680
190  700
189  835
188  820
187  850
186  805
185  810
184  920
183  970
182  850
181  985
180  810
179  890
178  925
177  885
176  860
175  760
174  830
173  905
172  720
171  725
170  725
169  720
168  735
167  630
166  590
165  685
164  630
163  645
162  895
161  895
160  1150
159  1795
158  1975
157  1880
156  1260
155  1030
154  830
153  670
152  715
151  615
150  735
149  800
148  620
147  1115
146  690
145  655
144  585
143  600
142  655
141  635
140  580
139  630
138  645
137  615
136  635
135  665
134  675
133  600
132  710
131  655
130  830
129  775
128  690
127  600
126  625
125  705
124  635
123  625
122  630
121  615
120  525
119  555
118  495
117  460
116  555
115  420
114  520
113  415
112  470
111  570
110  570
109  765
108  1570
107  2065
106  1850
105  955
104  540
103  425
102  465
101  470
100  425
99  560
98  550
97  480
96  640
95  500
94  475
93  435
92  450
91  465
90  445
89  355
88  460
87  475
86  505
85  395
84  400
83  450
82  365
81  470
80  405
79  430
78  365
77  450
76  450
75  465
74  470
73  485
72  430
71  415
70  430
69  465
68  485
67  375
66  420
65  365
64  360
63  425
62  435
61  395
60  450
59  325
58  455
57  445
56  470
55  430
54  490
53  465
52  465
51  460
50  460
49  410
48  390
47  395
46  415
45  370
44  380
43  390
42  470
41  510
40  475
39  535
38  400
37  490
36  460
35  500
34  470
33  435
32  555
31  625
30  715
29  740
28  575
27  525
26  425
25  460
24  460
23  410
22  335
21  505
20  345
19  395
18  420
17  500
16  470
15  410
14  415
13  365
12  385
11  340
10  370
9  270
8  405
7  350
6  295
5  325
4  385
3  315
2  375
1  360
-2.2737368e-013  330
-1  345
-2  330
-3  330
-4  330

# Region:            O1s
# Acquisition Date:  06/02/22 09:19:51 UTC
# Analysis Method:   XPS
# Analyzer:          Phoibos 100 R6
# Analyzer Lens:     LargeArea:1.5kV
# Analyzer Slit:     1:0.2x20\B:open
# Scan Mode:         FixedAnalyzerTransmission
# Curves/Scan:       1
# Values/Curve:      141
# Dwell Time:        0.8
# Excitation Energy: 1486.61
# Binding Energy:    541
# Pass Energy:       30
# Bias Voltage:      90
# Detector Voltage:  2600
# Eff. Workfunction: 4.309
# Source:            X-Ray Dummy
# Comment:           
#
# Cycle: 0
# Number of Scans: 1
#
# Cycle: 0, Curve: 0
# Acquisition Date: 06/02/22 09:19:51 UTC
#
# ColumnLabels: energy counts/s
#
541  1025
540.9  1011.25
540.8  1042.5
540.7  1040
540.6  1052.5
540.5  1022.5
540.4  1091.25
540.3  1106.25
540.2  1066.25
540.1  1073.75
540  1202.5
539.9  1182.5
539.8  1200
539.7  1206.25
539.6  1218.75
539.5  1238.75
539.4  1292.5
539.3  1328.75
539.2  1360
539.1  1352.5
539  1421.25
538.9  1493.75
538.8  1668.75
538.7  1760
538.6  1771.25
538.5  1900
538.4  2035
538.3  2418.75
538.2  2561.25
538.1  2750
538  3051.25
537.9  3341.25
537.8  3701.25
537.7  4215
537.6  4558.75
537.5  4937.5
537.4  5482.5
537.3  6088.75
537.2  6400
537.1  7082.5
537  7442.5
536.9  7843.75
536.8  8248.75
536.7  8776.25
536.6  8762.5
536.5  8900
536.4  9156.25
536.3  9212.5
536.2  8852.5
536.1  8745
536  8570
535.9  8035
535.8  7586.25
535.7  6966.25
535.6  6620
535.5  6121.25
535.4  5642.5
535.3  4936.25
535.2  4526.25
535.1  4257.5
535  3690
534.9  3293.75
534.8  3060
534.7  2702.5
534.6  2432.5
534.5  2186.25
534.4  1958.75
534.3  1852.5
534.2  1638.75
534.1  1507.5
534  1448.75
533.9  1453.75
533.8  1305
533.7  1213.75
533.6  1143.75
533.5  1070
533.4  1135
533.3  1111.25
533.2  1043.75
533.1  1056.25
533  988.75
532.9  992.5
532.8  947.5
532.7  987.5
532.6  977.5
532.5  911.25
532.4  922.5
532.3  1003.75
532.2  915
532.1  948.75
532  861.25
531.9  946.25
531.8  956.25
531.7  888.75
531.6  938.75
531.5  883.75
531.4  918.75
531.3  853.75
531.2  873.75
531.1  872.5
531  928.75
530.9  907.5
530.8  898.75
530.7  906.25
530.6  981.25
530.5  885
530.4  892.5
530.3  902.5
530.2  927.5
530.1  832.5
530  862.5
529.9  873.75
529.8  866.25
529.7  830
529.6  861.25
529.5  877.5
529.4  808.75
529.3  872.5
529.2  861.25
529.1  883.75
529  811.25
528.9  861.25
528.8  876.25
528.7  825
528.6  915
528.5  947.5
528.4  928.75
528.3  900
528.2  925
528.1  998.75
528  1053.75
527.9  1080
527.8  1070
527.7  1128.75
527.6  1123.75
527.5  1152.5
527.4  1187.5
527.3  1325
527.2  1245
527.1  1250
527  1312.5

# Region:            Si2p
# Acquisition Date:  06/02/22 09:21:21 UTC
# Analysis Method:   XPS
# Analyzer:          Phoibos 100 R6
# Analyzer Lens:     LargeArea:1.5kV
# Analyzer Slit:     1:0.2x20\B:open
# Scan Mode:         FixedAnalyzerTransmission
# Curves/Scan:       1
# Values/Curve:      111
# Dwell Time:        0.8
# Excitation Energy: 1486.61
# Binding Energy:    112
# Pass Energy:       30
# Bias Voltage:      90
# Detector Voltage:  2600
# Eff. Workfunction: 4.309
# Source:            X-Ray Dummy
# Comment:           
#
# Cycle: 0
# Number of Scans: 1
#
# Cycle: 0, Curve: 0
# Acquisition Date: 06/02/22 09:21:21 UTC
#
# ColumnLabels: energy counts/s
#
112  346.25
111.9  360
111.8  308.75
111.7  361.25
111.6  346.25
111.5  306.25
111.4  361.25
111.3  326.25
111.2  316.25
111.1  336.25
111  336.25
110.9  358.75
110.8  355
110.7  360
110.6  327.5
110.5  351.25
110.4  368.75
110.3  365
110.2  347.5
110.1  330
110  372.5
109.9  386.25
109.8  370
109.7  396.25
109.6  451.25
109.5  441.25
109.4  411.25
109.3  463.75
109.2  477.5
109.1  483.75
109  551.25
108.9  633.75
108.8  602.5
108.7  658.75
108.6  687.5
108.5  752.5
108.4  848.75
108.3  878.75
108.2  1001.25
108.1  1043.75
108  1110
107.9  1215
107.8  1372.5
107.7  1320
107.6  1386.25
107.5  1486.25
107.4  1522.5
107.3  1512.5
107.2  1576.25
107.1  1548.75
107  1531.25
106.9  1513.75
106.8  1500
106.7  1428.75
106.6  1453.75
106.5  1303.75
106.4  1277.5
106.3  1165
106.2  1082.5
106.1  1015
106  895
105.9  903.75
105.8  796.25
105.7  826.25
105.6  721.25
105.5  681.25
105.4  610
105.3  575
105.2  558.75
105.1  580
105  501.25
104.9  400
104.8  407.5
104.7  463.75
104.6  418.75
104.5  463.75
104.4  393.75
104.3  350
104.2  401.25
104.1  376.25
104  377.5
103.9  361.25
103.8  355
103.7  371.25
103.6  347.5
103.5  330
103.4  296.25
103.3  338.75
103.2  332.5
103.1  345
103  323.75
102.9  313.75
102.8  328.75
102.7  330
102.6  336.25
102.5  320
102.4  346.25
102.3  296.25
102.2  323.75
102.1  330
102  313.75
101.9  335
101.8  325
101.7  317.5
101.6  322.5
101.5  370
101.4  275
101.3  301.25
101.2  303.75
101.1  315
101  306.25

