# Created by:        SpecsLab Prodigy, Version 4.60.2-r85849 
#
# XY-Serializer Export Settings:
#   Comment Prefix:           #
#   Output meta data:         yes
#   Energy Axis:              Binding Energy
#   Count Rate:               Counts per Second
#   Separate Scan Data:       no
#   Separate Channel Data:    no
#   External Channel Data:    yes
#   Transmission Function:    no
#   ErrorBar:                 no
#   Operation Results:        yes
#   Time Zone Format:         UTC
#
# Group:             Spectrum Group
#
# Region:            C1s
# Acquisition Date:  12/16/21 12:34:40 UTC
# Analysis Method:   XPS
# Analyzer:          Phoibos 100 R6
# Analyzer Lens:     LargeArea:1.5kV
# Analyzer Slit:     1:0.2x20\B:open
# Scan Mode:         FixedAnalyzerTransmission
# Curves/Scan:       1
# Values/Curve:      131
# Dwell Time:        0.8
# Excitation Energy: 1486.61
# Binding Energy:    295
# Pass Energy:       30
# Bias Voltage:      90
# Detector Voltage:  2600
# Eff. Workfunction: 4.309
# Source:            X-Ray Dummy
# Comment:           
#
# Cycle: 0
# Number of Scans: 10
#
# Cycle: 0, Curve: 0
# Acquisition Date: 12/16/21 12:34:40 UTC
#
# ColumnLabels: energy counts/s
#
295  1025.375
294.9  1039.625
294.8  1041.375
294.7  1038.25
294.6  1022.875
294.5  1029.125
294.4  1021.5
294.3  1021.25
294.2  1028.375
294.1  1037.75
294  1042.375
293.9  1022.375
293.8  1039.25
293.7  1027.125
293.6  1049.75
293.5  1032.75
293.4  1032.875
293.3  1023.75
293.2  1036.25
293.1  1057.125
293  1037.25
292.9  1021.625
292.8  1035.125
292.7  1032.5
292.6  1036
292.5  1037.125
292.4  1043.625
292.3  1064.5
292.2  1034.75
292.1  1054.625
292  1054.875
291.9  1045.75
291.8  1051.375
291.7  1050.125
291.6  1036
291.5  1054.125
291.4  1047.875
291.3  1053.75
291.2  1073.75
291.1  1067.125
291  1087.625
290.9  1073.5
290.8  1069.125
290.7  1083.5
290.6  1102
290.5  1067.75
290.4  1113.5
290.3  1111.125
290.2  1136.75
290.1  1132
290  1148.875
289.9  1185.375
289.8  1200.625
289.7  1227.5
289.6  1276.25
289.5  1275.625
289.4  1338
289.3  1366.125
289.2  1438.125
289.1  1489.75
289  1552.375
288.9  1632.5
288.8  1680.75
288.7  1799.5
288.6  1892.375
288.5  1961
288.4  2009.375
288.3  2117.5
288.2  2191.5
288.1  2268.25
288  2344.5
287.9  2428.25
287.8  2437.875
287.7  2484.375
287.6  2548.625
287.5  2563
287.4  2636.875
287.3  2622.5
287.2  2635.375
287.1  2650.375
287  2630.75
286.9  2642.25
286.8  2666.375
286.7  2591.5
286.6  2588
286.5  2561.875
286.4  2514.375
286.3  2485.75
286.2  2420.75
286.1  2332.25
286  2242.375
285.9  2155.25
285.8  2069.5
285.7  1951.25
285.6  1850.25
285.5  1753.375
285.4  1654.625
285.3  1520.5
285.2  1438.125
285.1  1364.125
285  1269.5
284.9  1209.75
284.8  1163.75
284.7  1097.625
284.6  1082.75
284.5  1039.125
284.4  1021.25
284.3  1010.75
284.2  980.375
284.1  964.625
284  959.375
283.9  939.875
283.8  945.375
283.7  945
283.6  926.875
283.5  923.25
283.4  918.875
283.3  910.375
283.2  925
283.1  915.875
283  913.25
282.9  913
282.8  906
282.7  906.875
282.6  910.625
282.5  906.375
282.4  883.5
282.3  903.875
282.2  910.125
282.1  907.375
282  893.25

# Region:            N1s
# Acquisition Date:  12/16/21 12:56:31 UTC
# Analysis Method:   XPS
# Analyzer:          Phoibos 100 R6
# Analyzer Lens:     LargeArea:1.5kV
# Analyzer Slit:     1:0.2x20\B:open
# Scan Mode:         FixedAnalyzerTransmission
# Curves/Scan:       1
# Values/Curve:      131
# Dwell Time:        0.8
# Excitation Energy: 1486.61
# Binding Energy:    408
# Pass Energy:       30
# Bias Voltage:      90
# Detector Voltage:  2600
# Eff. Workfunction: 4.309
# Source:            X-Ray Dummy
# Comment:           
#
# Cycle: 0
# Number of Scans: 20
#
# Cycle: 0, Curve: 0
# Acquisition Date: 12/16/21 12:56:31 UTC
#
# ColumnLabels: energy counts/s
#
408  1141.375
407.9  1156
407.8  1127.125
407.7  1159.125
407.6  1135.3125
407.5  1146.0625
407.4  1125.6875
407.3  1140.5625
407.2  1131.3125
407.1  1136.8125
407  1149.6875
406.9  1152
406.8  1153.5
406.7  1151.125
406.6  1138.9375
406.5  1150.6875
406.4  1147.5
406.3  1156.75
406.2  1132.8125
406.1  1148.3125
406  1142.875
405.9  1174.0625
405.8  1151.125
405.7  1153.3125
405.6  1161.125
405.5  1160.25
405.4  1154.4375
405.3  1167.3125
405.2  1149.625
405.1  1161.25
405  1164.6875
404.9  1176.1875
404.8  1147.5625
404.7  1155.0625
404.6  1171.5625
404.5  1161.125
404.4  1160.25
404.3  1162
404.2  1181.0625
404.1  1177.8125
404  1184.6875
403.9  1179.125
403.8  1190.3125
403.7  1179.875
403.6  1205.5625
403.5  1204.1875
403.4  1220.875
403.3  1232.3125
403.2  1238.25
403.1  1244.3125
403  1268.9375
402.9  1280.75
402.8  1279.875
402.7  1299.625
402.6  1331.625
402.5  1338.5
402.4  1330.0625
402.3  1348.8125
402.2  1341.0625
402.1  1362.125
402  1383.0625
401.9  1377.5
401.8  1376.5
401.7  1391.3125
401.6  1389.375
401.5  1408.25
401.4  1393.25
401.3  1407.125
401.2  1400.625
401.1  1401.625
401  1398.3125
400.9  1383.875
400.8  1404.9375
400.7  1408.9375
400.6  1408.4375
400.5  1385.3125
400.4  1368.4375
400.3  1356.875
400.2  1356.25
400.1  1333
400  1314.4375
399.9  1290.4375
399.8  1279
399.7  1264.4375
399.6  1254.625
399.5  1209.0625
399.4  1213.5
399.3  1203.25
399.2  1175.3125
399.1  1157.5625
399  1158.3125
398.9  1150.0625
398.8  1151.5
398.7  1147.1875
398.6  1140.5625
398.5  1137.625
398.4  1136.625
398.3  1147.125
398.2  1131.625
398.1  1123.625
398  1131.125
397.9  1116.5625
397.8  1122.625
397.7  1110.4375
397.6  1115.75
397.5  1110.3125
397.4  1123.25
397.3  1111.0625
397.2  1119.5625
397.1  1112.0625
397  1105.5625
396.9  1109.75
396.8  1096.8125
396.7  1101.3125
396.6  1102.0625
396.5  1102.25
396.4  1105.3125
396.3  1094.8125
396.2  1087.375
396.1  1103.5625
396  1108.4375
395.9  1107.625
395.8  1102.9375
395.7  1100.6875
395.6  1094.9375
395.5  1096.25
395.4  1107
395.3  1092.75
395.2  1090.8125
395.1  1109.625
395  1117

# Region:            overview
# Acquisition Date:  12/16/21 11:16:20 UTC
# Analysis Method:   XPS
# Analyzer:          Phoibos 100 R6
# Analyzer Lens:     LargeArea:1.5kV
# Analyzer Slit:     1:0.2x20\B:open
# Scan Mode:         FixedAnalyzerTransmission
# Curves/Scan:       1
# Values/Curve:      1205
# Dwell Time:        0.2
# Excitation Energy: 1486.61
# Binding Energy:    1200
# Pass Energy:       50
# Bias Voltage:      90
# Detector Voltage:  2600
# Eff. Workfunction: 4.309
# Source:            X-Ray Dummy
# Comment:           
#
# Cycle: 0
# Number of Scans: 1
#
# Cycle: 0, Curve: 0
# Acquisition Date: 12/16/21 11:16:20 UTC
#
# ColumnLabels: energy counts/s
#
1200  8270
1199  7585
1198  7995
1197  8155
1196  7980
1195  7860
1194  7690
1193  8015
1192  7930
1191  7840
1190  7925
1189  7765
1188  8150
1187  8065
1186  8090
1185  8190
1184  7885
1183  8215
1182  8150
1181  8205
1180  8005
1179  8315
1178  7925
1177  8225
1176  7870
1175  8275
1174  8135
1173  8115
1172  7835
1171  8340
1170  7980
1169  7815
1168  7930
1167  8230
1166  7880
1165  7715
1164  7865
1163  7735
1162  7385
1161  8365
1160  7705
1159  7715
1158  7980
1157  7975
1156  7640
1155  7920
1154  7720
1153  7340
1152  7775
1151  8010
1150  8020
1149  8145
1148  7510
1147  8030
1146  7655
1145  8205
1144  7795
1143  7585
1142  8190
1141  7800
1140  7925
1139  7855
1138  8120
1137  7700
1136  7735
1135  7900
1134  7865
1133  7855
1132  7665
1131  7735
1130  7850
1129  8265
1128  7895
1127  7745
1126  7640
1125  8020
1124  7940
1123  8475
1122  7560
1121  7730
1120  7980
1119  7640
1118  8040
1117  7740
1116  8145
1115  7705
1114  8020
1113  7980
1112  8080
1111  7885
1110  8025
1109  7595
1108  7990
1107  7675
1106  7775
1105  7635
1104  8065
1103  7440
1102  7650
1101  7500
1100  8185
1099  7980
1098  7640
1097  7815
1096  7740
1095  7715
1094  7595
1093  7635
1092  7695
1091  8050
1090  7545
1089  7680
1088  7865
1087  7920
1086  7675
1085  7980
1084  7705
1083  7445
1082  7700
1081  7705
1080  7375
1079  7710
1078  7520
1077  7765
1076  7705
1075  7785
1074  7820
1073  7410
1072  8025
1071  8115
1070  7900
1069  7445
1068  7885
1067  7915
1066  7935
1065  7860
1064  7990
1063  7975
1062  7915
1061  7920
1060  7540
1059  7790
1058  7670
1057  7775
1056  7765
1055  7835
1054  8070
1053  8055
1052  7890
1051  7950
1050  7545
1049  7545
1048  8020
1047  7765
1046  7630
1045  7650
1044  7670
1043  7720
1042  8055
1041  7600
1040  8205
1039  7550
1038  7755
1037  7755
1036  7805
1035  7855
1034  7770
1033  7775
1032  7765
1031  7890
1030  8025
1029  7580
1028  7630
1027  7675
1026  8245
1025  7780
1024  7615
1023  7785
1022  8105
1021  8125
1020  7990
1019  7845
1018  7975
1017  8290
1016  8020
1015  8040
1014  7460
1013  7485
1012  7730
1011  8015
1010  7690
1009  7965
1008  7905
1007  7640
1006  8055
1005  8200
1004  8045
1003  8315
1002  7695
1001  7630
1000  7735
999  7805
998  8005
997  7730
996  7615
995  7400
994  7275
993  7240
992  7510
991  7465
990  7205
989  7220
988  7500
987  7315
986  7755
985  7470
984  8005
983  8330
982  8480
981  8475
980  8145
979  8010
978  7480
977  7825
976  7355
975  6770
974  6655
973  6755
972  6660
971  6590
970  6270
969  6345
968  6150
967  6215
966  6290
965  5990
964  6125
963  5775
962  6075
961  6115
960  6280
959  6250
958  6135
957  5965
956  6055
955  6365
954  6090
953  6225
952  6135
951  6235
950  6315
949  6235
948  6495
947  6220
946  5840
945  6300
944  6070
943  6065
942  6215
941  6365
940  5825
939  6010
938  6190
937  6175
936  6155
935  5995
934  6295
933  6245
932  6240
931  6175
930  6040
929  6080
928  5975
927  6210
926  6215
925  6055
924  6045
923  6115
922  6165
921  6160
920  5855
919  5940
918  6020
917  5880
916  6220
915  6265
914  6190
913  6095
912  6285
911  6305
910  6040
909  6155
908  6275
907  6265
906  6015
905  6145
904  6125
903  5970
902  6055
901  6240
900  6125
899  5855
898  5775
897  5895
896  6475
895  6420
894  6280
893  6130
892  5930
891  5845
890  6170
889  6185
888  5930
887  5990
886  6115
885  5990
884  5985
883  6015
882  6520
881  6060
880  6310
879  5920
878  6065
877  6390
876  6070
875  6285
874  6140
873  6260
872  6010
871  6320
870  6340
869  6190
868  6140
867  6205
866  6355
865  6085
864  6200
863  6350
862  6115
861  6435
860  6015
859  5885
858  6300
857  6465
856  5875
855  5685
854  6160
853  6280
852  6005
851  6305
850  6050
849  5990
848  6270
847  6150
846  6180
845  6275
844  6130
843  6105
842  6440
841  6455
840  6190
839  6415
838  6115
837  6400
836  6020
835  6680
834  6130
833  6570
832  6165
831  6090
830  6130
829  6170
828  6170
827  6270
826  6195
825  6005
824  6550
823  5885
822  6175
821  6125
820  5905
819  6280
818  6200
817  6235
816  6110
815  6125
814  6340
813  6200
812  6300
811  6025
810  6330
809  5905
808  5925
807  6180
806  6300
805  6200
804  6570
803  6180
802  6390
801  6200
800  6065
799  5930
798  6270
797  6175
796  6350
795  6390
794  6150
793  6190
792  5930
791  6145
790  6125
789  6085
788  6395
787  6255
786  6045
785  6380
784  6170
783  6125
782  6060
781  6485
780  6130
779  6105
778  6115
777  5910
776  6350
775  6135
774  6070
773  5990
772  6085
771  6095
770  6110
769  6135
768  6420
767  6010
766  6065
765  6325
764  6410
763  6155
762  5960
761  6365
760  6530
759  6300
758  6325
757  6465
756  6265
755  6010
754  6475
753  6380
752  6270
751  5975
750  6475
749  6370
748  6055
747  6250
746  6385
745  6070
744  6630
743  6425
742  6115
741  6155
740  6065
739  6415
738  6120
737  6000
736  6555
735  6455
734  6265
733  6005
732  6435
731  6365
730  6075
729  6090
728  6220
727  6180
726  6445
725  6470
724  6650
723  6290
722  6450
721  6015
720  6370
719  6330
718  6245
717  6115
716  6335
715  6065
714  6375
713  6420
712  6255
711  6425
710  6320
709  6430
708  6260
707  6440
706  6115
705  6380
704  5980
703  6345
702  6075
701  6350
700  6380
699  6090
698  6135
697  11880
696  6435
695  6300
694  6150
693  6190
692  6125
691  6520
690  6450
689  6340
688  6485
687  6315
686  6145
685  6180
684  6140
683  6185
682  6370
681  6270
680  6500
679  6485
678  6230
677  6270
676  6380
675  6580
674  6660
673  6705
672  6105
671  6030
670  6230
669  6445
668  6345
667  6340
666  5870
665  6300
664  6545
663  6010
662  6255
661  6330
660  6290
659  6305
658  6330
657  6370
656  6730
655  6440
654  6040
653  6495
652  6450
651  5880
650  6330
649  6565
648  6430
647  6550
646  6855
645  6605
644  6420
643  6225
642  6375
641  6535
640  6490
639  6540
638  6435
637  6500
636  6505
635  6460
634  6155
633  6540
632  6505
631  6565
630  6365
629  6080
628  6365
627  6285
626  6160
625  6375
624  6315
623  6505
622  6520
621  6285
620  6510
619  6925
618  6105
617  6670
616  6350
615  6495
614  6165
613  6425
612  6540
611  6095
610  6130
609  6315
608  6520
607  6690
606  6575
605  6420
604  6335
603  6235
602  6495
601  6150
600  6515
599  6920
598  6505
597  6665
596  6450
595  6595
594  6460
593  6545
592  6860
591  6380
590  6460
589  6330
588  6185
587  6620
586  6470
585  6120
584  6230
583  6925
582  6715
581  6210
580  6415
579  6105
578  6320
577  6670
576  6410
575  5920
574  6140
573  6485
572  6245
571  6400
570  6275
569  6075
568  6005
567  6215
566  6265
565  6300
564  6430
563  6660
562  6465
561  6385
560  6825
559  6855
558  6705
557  6965
556  6455
555  6700
554  6670
553  6020
552  6330
551  5850
550  5770
549  5685
548  5695
547  5100
546  4860
545  4980
544  5020
543  4780
542  4810
541  4870
540  4670
539  4920
538  5540
537  7135
536  11025
535  14755
534  13175
533  8085
532  5510
531  4830
530  4460
529  4415
528  4240
527  4245
526  4740
525  5050
524  4785
523  4695
522  4085
521  4395
520  3875
519  4050
518  3885
517  4115
516  4035
515  3950
514  4145
513  3990
512  4080
511  3900
510  4035
509  4235
508  3935
507  3900
506  4045
505  3965
504  4175
503  3870
502  4020
501  3965
500  3860
499  4030
498  4110
497  4145
496  4175
495  4145
494  3905
493  3780
492  3980
491  3900
490  3945
489  3805
488  4035
487  3990
486  3730
485  3890
484  3910
483  4160
482  4030
481  3910
480  3880
479  3695
478  3590
477  4035
476  3885
475  3795
474  3915
473  3840
472  3680
471  3935
470  3740
469  3760
468  3990
467  3795
466  3650
465  3940
464  3955
463  3785
462  4110
461  3785
460  3910
459  3735
458  3825
457  3775
456  3780
455  3905
454  3845
453  3585
452  3615
451  3935
450  3755
449  3690
448  3785
447  3425
446  3705
445  3710
444  3575
443  3590
442  3605
441  3960
440  3830
439  3810
438  3980
437  3645
436  3680
435  3690
434  3975
433  3740
432  3935
431  3755
430  3720
429  3615
428  4070
427  3590
426  3715
425  3515
424  3710
423  4060
422  3795
421  3730
420  3915
419  3760
418  3855
417  3765
416  3795
415  3720
414  3550
413  3725
412  3550
411  3575
410  3535
409  3530
408  3565
407  3585
406  3810
405  3755
404  3800
403  4075
402  4215
401  4355
400  4240
399  3515
398  3345
397  3440
396  3670
395  3365
394  3340
393  3580
392  3635
391  3610
390  3405
389  3735
388  3390
387  3445
386  3495
385  3185
384  3220
383  3410
382  3265
381  3380
380  3370
379  3320
378  3400
377  3280
376  3340
375  3580
374  3310
373  3355
372  3280
371  3365
370  3560
369  3130
368  3410
367  3155
366  3405
365  3320
364  3305
363  3275
362  3370
361  3320
360  3170
359  3505
358  3240
357  3365
356  3185
355  3390
354  3755
353  3385
352  3150
351  3415
350  3410
349  3305
348  3485
347  3435
346  3275
345  3155
344  3505
343  3325
342  3480
341  3420
340  3680
339  3155
338  3330
337  3280
336  3340
335  3580
334  3270
333  3260
332  3285
331  3285
330  3410
329  3495
328  3275
327  3415
326  3530
325  3455
324  3405
323  3375
322  3370
321  3495
320  3545
319  3625
318  3480
317  3440
316  3445
315  3460
314  3545
313  3440
312  3585
311  3520
310  3700
309  3905
308  3290
307  3510
306  3480
305  3480
304  3350
303  3310
302  3305
301  3080
300  3125
299  3170
298  2965
297  3010
296  3395
295  3105
294  3030
293  3295
292  3335
291  3075
290  3675
289  5050
288  6745
287  7565
286  6305
285  4080
284  3080
283  2835
282  2865
281  2885
280  2920
279  2490
278  2930
277  2890
276  3125
275  2930
274  2590
273  2725
272  2495
271  2605
270  2635
269  2480
268  2475
267  2565
266  2665
265  2580
264  2470
263  2460
262  2540
261  2515
260  2720
259  2565
258  2475
257  2415
256  2460
255  2330
254  2365
253  2315
252  2435
251  2435
250  2555
249  2425
248  2520
247  2580
246  2365
245  2485
244  2345
243  2590
242  2490
241  2525
240  2565
239  2580
238  2580
237  2410
236  2475
235  2190
234  2370
233  2580
232  2205
231  2450
230  2450
229  2500
228  2375
227  2425
226  2295
225  2230
224  2115
223  2085
222  2120
221  2090
220  2060
219  2085
218  2070
217  2265
216  1950
215  1950
214  1995
213  2060
212  1940
211  1945
210  1905
209  2040
208  1910
207  2000
206  2025
205  1945
204  2025
203  1950
202  2165
201  2090
200  1835
199  1895
198  1830
197  1990
196  1745
195  1915
194  1925
193  2090
192  1870
191  2000
190  1780
189  1880
188  1830
187  1880
186  1790
185  1955
184  1755
183  2030
182  1915
181  1900
180  2100
179  1840
178  1870
177  1915
176  2000
175  1825
174  1930
173  1775
172  1975
171  1825
170  1730
169  1730
168  1880
167  1565
166  1590
165  1625
164  1660
163  1630
162  1890
161  1925
160  1920
159  2020
158  2585
157  2755
156  2730
155  2320
154  1865
153  1920
152  1715
151  1520
150  1735
149  1590
148  1645
147  1635
146  1610
145  1640
144  1525
143  1605
142  1725
141  1620
140  1535
139  1470
138  1645
137  1450
136  1620
135  1620
134  1495
133  1545
132  1565
131  1580
130  1645
129  1585
128  1595
127  1705
126  1370
125  1550
124  1520
123  1655
122  1540
121  1505
120  1440
119  1270
118  1545
117  1385
116  1335
115  1500
114  1320
113  1605
112  1235
111  1330
110  1330
109  1405
108  1515
107  2075
106  2710
105  2575
104  1945
103  1610
102  1375
101  1325
100  1350
99  1490
98  1400
97  1260
96  1240
95  1480
94  1360
93  1340
92  1420
91  1350
90  1220
89  1260
88  1180
87  1325
86  1185
85  1295
84  1115
83  1250
82  1300
81  1375
80  1180
79  1285
78  1290
77  1240
76  1285
75  1330
74  1280
73  1155
72  1175
71  1175
70  1125
69  1195
68  1285
67  1175
66  1195
65  1340
64  1295
63  1175
62  1240
61  1250
60  1295
59  1070
58  1230
57  1240
56  1225
55  1065
54  1230
53  1340
52  1315
51  1330
50  1155
49  1180
48  1280
47  1145
46  1240
45  1180
44  1170
43  1245
42  1215
41  1230
40  1250
39  1150
38  1185
37  1095
36  1180
35  1185
34  1035
33  1140
32  1130
31  1255
30  1245
29  1420
28  1390
27  1555
26  1440
25  1470
24  1425
23  1430
22  1180
21  1075
20  1100
19  870
18  1100
17  1070
16  1045
15  980
14  1020
13  870
12  935
11  1005
10  840
9  845
8  765
7  800
6  755
5  740
4  880
3  805
2  855
1  775
-2.2737368e-013  790
-1  730
-2  685
-3  810
-4  795

# Region:            Si2p
# Acquisition Date:  12/16/21 12:24:42 UTC
# Analysis Method:   XPS
# Analyzer:          Phoibos 100 R6
# Analyzer Lens:     LargeArea:1.5kV
# Analyzer Slit:     1:0.2x20\B:open
# Scan Mode:         FixedAnalyzerTransmission
# Curves/Scan:       1
# Values/Curve:      141
# Dwell Time:        0.8
# Excitation Energy: 1486.61
# Binding Energy:    112
# Pass Energy:       30
# Bias Voltage:      90
# Detector Voltage:  2600
# Eff. Workfunction: 4.309
# Source:            X-Ray Dummy
# Comment:           
#
# Cycle: 0
# Number of Scans: 8
#
# Cycle: 0, Curve: 0
# Acquisition Date: 12/16/21 12:24:42 UTC
#
# ColumnLabels: energy counts/s
#
112  463.90625
111.9  472.65625
111.8  458.28125
111.7  485
111.6  477.34375
111.5  463.59375
111.4  480.3125
111.3  459.53125
111.2  477.65625
111.1  466.875
111  476.09375
110.9  471.71875
110.8  474.84375
110.7  481.5625
110.6  462.65625
110.5  475.625
110.4  460.9375
110.3  483.125
110.2  470.15625
110.1  465.78125
110  477.5
109.9  475.3125
109.8  465.3125
109.7  482.8125
109.6  472.1875
109.5  463.125
109.4  469.53125
109.3  474.21875
109.2  474.6875
109.1  458.125
109  492.5
108.9  491.71875
108.8  478.75
108.7  475
108.6  490.78125
108.5  477.96875
108.4  494.53125
108.3  506.875
108.2  517.8125
108.1  504.84375
108  511.40625
107.9  519.6875
107.8  541.25
107.7  542.96875
107.6  543.90625
107.5  576.5625
107.4  594.84375
107.3  610.3125
107.2  615.3125
107.1  651.875
107  677.65625
106.9  693.59375
106.8  720.15625
106.7  743.59375
106.6  761.5625
106.5  781.71875
106.4  825.625
106.3  857.1875
106.2  882.5
106.1  912.65625
106  936.71875
105.9  977.03125
105.8  991.40625
105.7  978.90625
105.6  990.9375
105.5  1013.9063
105.4  1006.5625
105.3  1015.7813
105.2  976.25
105.1  977.1875
105  949.84375
104.9  940.3125
104.8  905.78125
104.7  872.1875
104.6  873.125
104.5  801.25
104.4  791.40625
104.3  764.0625
104.2  710.3125
104.1  672.34375
104  676.40625
103.9  638.125
103.8  623.90625
103.7  592.5
103.6  557.8125
103.5  564.53125
103.4  522.65625
103.3  537.96875
103.2  520.46875
103.1  484.0625
103  499.21875
102.9  503.59375
102.8  498.28125
102.7  489.6875
102.6  481.875
102.5  464.6875
102.4  472.65625
102.3  464.6875
102.2  475.3125
102.1  464.53125
102  468.90625
101.9  464.6875
101.8  467.03125
101.7  460.3125
101.6  465.9375
101.5  450
101.4  456.25
101.3  444.6875
101.2  465.9375
101.1  446.40625
101  454.53125
100.9  444.0625
100.8  447.03125
100.7  452.65625
100.6  462.8125
100.5  450.3125
100.4  462.5
100.3  451.25
100.2  445.78125
100.1  465.46875
100  462.34375
99.9  467.03125
99.8  457.1875
99.7  458.125
99.6  457.5
99.5  439.84375
99.4  454.375
99.3  457.03125
99.2  453.59375
99.1  457.34375
99  462.34375
98.9  447.8125
98.8  455.46875
98.7  460.9375
98.6  455.46875
98.5  452.34375
98.4  459.53125
98.3  458.28125
98.2  457.96875
98.1  464.6875
98  453.75

# Region:            O1s
# Acquisition Date:  12/16/21 12:38:46 UTC
# Analysis Method:   XPS
# Analyzer:          Phoibos 100 R6
# Analyzer Lens:     LargeArea:1.5kV
# Analyzer Slit:     1:0.2x20\B:open
# Scan Mode:         FixedAnalyzerTransmission
# Curves/Scan:       1
# Values/Curve:      171
# Dwell Time:        0.8
# Excitation Energy: 1486.61
# Binding Energy:    545
# Pass Energy:       30
# Bias Voltage:      90
# Detector Voltage:  2600
# Eff. Workfunction: 4.309
# Source:            X-Ray Dummy
# Comment:           
#
# Cycle: 0
# Number of Scans: 10
#
# Cycle: 0, Curve: 0
# Acquisition Date: 12/16/21 12:38:46 UTC
#
# ColumnLabels: energy counts/s
#
545  1523.5
544.9  1520.25
544.8  1505.5
544.7  1481.625
544.6  1502
544.5  1501.75
544.4  1480.5
544.3  1458.625
544.2  1490.75
544.1  1475.5
544  1465.5
543.9  1479
543.8  1490.75
543.7  1537.875
543.6  1457.5
543.5  1455.875
543.4  1436.5
543.3  1464.625
543.2  1432.375
543.1  1447
543  1456.375
542.9  1448.875
542.8  1434.25
542.7  1450.875
542.6  1427.625
542.5  1439.25
542.4  1420.875
542.3  1443.5
542.2  1434.375
542.1  1448.625
542  1433.875
541.9  1453.5
541.8  1399
541.7  1431.625
541.6  1416.25
541.5  1411.125
541.4  1414.25
541.3  1421.625
541.2  1429.375
541.1  1424.625
541  1452.25
540.9  1430.5
540.8  1425.75
540.7  1418.875
540.6  1435
540.5  1405.25
540.4  1436.125
540.3  1438.375
540.2  1444
540.1  1404.75
540  1453.625
539.9  1412.375
539.8  1447
539.7  1414
539.6  1444.875
539.5  1436.5
539.4  1407.125
539.3  1438.5
539.2  1467.375
539.1  1461.75
539  1468.25
538.9  1472.25
538.8  1469.875
538.7  1479.125
538.6  1484.375
538.5  1507.375
538.4  1488.75
538.3  1504.625
538.2  1518.125
538.1  1541.125
538  1549.75
537.9  1550.375
537.8  1607
537.7  1608.25
537.6  1624.25
537.5  1688.375
537.4  1688.75
537.3  1758.25
537.2  1797.875
537.1  1840
537  1911.25
536.9  2001.75
536.8  2072.75
536.7  2149.5
536.6  2290.375
536.5  2413.375
536.4  2541.75
536.3  2684
536.2  2826.875
536.1  3025.875
536  3246.875
535.9  3418.75
535.8  3631.375
535.7  3835.25
535.6  4093.625
535.5  4310.75
535.4  4497.5
535.3  4707.75
535.2  4925.875
535.1  5107.375
535  5257.625
534.9  5387.125
534.8  5539.25
534.7  5556.5
534.6  5617.75
534.5  5573.625
534.4  5463
534.3  5383
534.2  5211.875
534.1  5033.25
534  4805.625
533.9  4555.25
533.8  4278.25
533.7  4038.125
533.6  3720.125
533.5  3449.375
533.4  3225.5
533.3  2985.625
533.2  2796.25
533.1  2567.75
533  2401.25
532.9  2238.875
532.8  2097.625
532.7  1989.125
532.6  1924.625
532.5  1856.375
532.4  1765.75
532.3  1706.75
532.2  1649.25
532.1  1628.25
532  1591.375
531.9  1581.75
531.8  1554.625
531.7  1538.625
531.6  1541.75
531.5  1515.5
531.4  1496.125
531.3  1463.875
531.2  1456.375
531.1  1436.125
531  1426.5
530.9  1414.125
530.8  1389
530.7  1411.875
530.6  1375.375
530.5  1372.25
530.4  1368.25
530.3  1347.5
530.2  1361.75
530.1  1345.25
530  1310.75
529.9  1329.625
529.8  1336.25
529.7  1345.25
529.6  1309
529.5  1310.75
529.4  1323.75
529.3  1323.25
529.2  1299
529.1  1284.5
529  1298
528.9  1293.25
528.8  1296.375
528.7  1308.125
528.6  1280.25
528.5  1321
528.4  1290.875
528.3  1281.5
528.2  1285.75
528.1  1281.875
528  1312

# Region:            Cl2p
# Acquisition Date:  12/16/21 11:53:50 UTC
# Analysis Method:   XPS
# Analyzer:          Phoibos 100 R6
# Analyzer Lens:     LargeArea:1.5kV
# Analyzer Slit:     1:0.2x20\B:open
# Scan Mode:         FixedAnalyzerTransmission
# Curves/Scan:       1
# Values/Curve:      121
# Dwell Time:        0.8
# Excitation Energy: 1486.61
# Binding Energy:    206
# Pass Energy:       30
# Bias Voltage:      90
# Detector Voltage:  2600
# Eff. Workfunction: 4.309
# Source:            X-Ray Dummy
# Comment:           
#
# Cycle: 0
# Number of Scans: 3
#
# Cycle: 0, Curve: 0
# Acquisition Date: 12/16/21 11:53:50 UTC
#
# ColumnLabels: energy counts/s
#
206  682.91667
205.9  638.33333
205.8  664.16667
205.7  674.16667
205.6  629.58333
205.5  650.41667
205.4  775
205.3  657.5
205.2  648.33333
205.1  680
205  629.58333
204.9  637.91667
204.8  656.25
204.7  636.66667
204.6  677.08333
204.5  670
204.4  637.08333
204.3  645.83333
204.2  633.75
204.1  668.75
204  675
203.9  684.16667
203.8  660.41667
203.7  665.83333
203.6  647.5
203.5  701.25
203.4  670
203.3  664.58333
203.2  690
203.1  655.41667
203  669.58333
202.9  676.66667
202.8  659.16667
202.7  638.33333
202.6  665
202.5  674.16667
202.4  647.08333
202.3  625.41667
202.2  637.91667
202.1  673.33333
202  651.66667
201.9  670.41667
201.8  664.16667
201.7  669.58333
201.6  660.41667
201.5  672.08333
201.4  685
201.3  655.83333
201.2  645.41667
201.1  658.33333
201  660.41667
200.9  661.25
200.8  635.41667
200.7  659.16667
200.6  677.08333
200.5  665.83333
200.4  637.08333
200.3  665.41667
200.2  679.16667
200.1  653.33333
200  675.83333
199.9  658.75
199.8  682.91667
199.7  649.58333
199.6  662.5
199.5  645.41667
199.4  639.58333
199.3  647.91667
199.2  652.08333
199.1  642.5
199  685.83333
198.9  660.41667
198.8  644.58333
198.7  667.08333
198.6  651.25
198.5  674.16667
198.4  682.08333
198.3  612.5
198.2  626.66667
198.1  641.66667
198  635
197.9  668.75
197.8  677.08333
197.7  657.08333
197.6  637.5
197.5  660.41667
197.4  666.66667
197.3  642.5
197.2  652.91667
197.1  661.25
197  652.5
196.9  648.75
196.8  666.66667
196.7  620.83333
196.6  650.83333
196.5  662.91667
196.4  667.08333
196.3  671.25
196.2  641.66667
196.1  649.16667
196  652.08333
195.9  647.08333
195.8  642.91667
195.7  680.83333
195.6  680
195.5  627.5
195.4  667.91667
195.3  648.75
195.2  642.91667
195.1  654.16667
195  668.75
194.9  653.75
194.8  664.58333
194.7  657.5
194.6  653.75
194.5  680.83333
194.4  622.08333
194.3  654.58333
194.2  635.41667
194.1  657.91667
194  632.91667

# Region:            Ba3d
# Acquisition Date:  12/16/21 11:55:52 UTC
# Analysis Method:   XPS
# Analyzer:          Phoibos 100 R6
# Analyzer Lens:     LargeArea:1.5kV
# Analyzer Slit:     1:0.2x20\B:open
# Scan Mode:         FixedAnalyzerTransmission
# Curves/Scan:       1
# Values/Curve:      151
# Dwell Time:        0.8
# Excitation Energy: 1486.61
# Binding Energy:    790
# Pass Energy:       30
# Bias Voltage:      90
# Detector Voltage:  2600
# Eff. Workfunction: 4.309
# Source:            X-Ray Dummy
# Comment:           
#
# Cycle: 0
# Number of Scans: 3
#
# Cycle: 0, Curve: 0
# Acquisition Date: 12/16/21 11:55:52 UTC
#
# ColumnLabels: energy counts/s
#
790  2276.25
789.9  2355
789.8  2284.5833
789.7  2297.0833
789.6  2225
789.5  2262.9167
789.4  2343.75
789.3  2288.3333
789.2  2323.75
789.1  2290.4167
789  2312.9167
788.9  2276.25
788.8  2262.5
788.7  2303.75
788.6  2241.6667
788.5  2315.8333
788.4  2314.5833
788.3  2256.25
788.2  2270.4167
788.1  2260.8333
788  2268.75
787.9  2285
787.8  2273.3333
787.7  2262.9167
787.6  2244.1667
787.5  2278.75
787.4  2295.8333
787.3  2321.6667
787.2  2315.4167
787.1  2297.9167
787  2316.6667
786.9  2274.1667
786.8  2293.3333
786.7  2306.25
786.6  2276.25
786.5  2232.9167
786.4  2194.1667
786.3  2218.3333
786.2  2288.3333
786.1  2308.75
786  2313.3333
785.9  2254.5833
785.8  2295.4167
785.7  2278.75
785.6  2301.6667
785.5  2274.5833
785.4  2285
785.3  2273.75
785.2  2237.5
785.1  2317.0833
785  2265.8333
784.9  2233.75
784.8  2273.3333
784.7  2314.1667
784.6  2247.0833
784.5  2214.5833
784.4  2291.6667
784.3  2276.25
784.2  2287.5
784.1  2321.6667
784  2281.25
783.9  2292.9167
783.8  2308.3333
783.7  2259.1667
783.6  2202.9167
783.5  2290.8333
783.4  2280.8333
783.3  2260
783.2  2295.8333
783.1  2327.9167
783  2268.3333
782.9  2210.8333
782.8  2306.25
782.7  2287.0833
782.6  2261.25
782.5  2319.5833
782.4  2319.5833
782.3  2265.8333
782.2  2275.4167
782.1  2244.5833
782  2265.4167
781.9  2279.1667
781.8  2277.0833
781.7  2264.5833
781.6  2257.0833
781.5  2318.75
781.4  2239.5833
781.3  2270.8333
781.2  2268.3333
781.1  2280.8333
781  2282.9167
780.9  2250.4167
780.8  2289.1667
780.7  2273.75
780.6  2242.5
780.5  2266.25
780.4  2282.9167
780.3  2262.0833
780.2  2306.6667
780.1  2242.9167
780  2302.0833
779.9  2257.5
779.8  2252.9167
779.7  2212.9167
779.6  2276.25
779.5  2323.75
779.4  2307.9167
779.3  2261.25
779.2  2209.1667
779.1  2273.75
779  2270
778.9  2260.4167
778.8  2196.6667
778.7  2266.6667
778.6  2252.5
778.5  2265.4167
778.4  2325.8333
778.3  2263.75
778.2  2289.1667
778.1  2276.25
778  2294.1667
777.9  2291.25
777.8  2310
777.7  2285
777.6  2265.4167
777.5  2262.0833
777.4  2226.25
777.3  2263.75
777.2  2258.3333
777.1  2252.0833
777  2245.4167
776.9  2278.75
776.8  2204.1667
776.7  2227.9167
776.6  2224.1667
776.5  2194.1667
776.4  2269.1667
776.3  2271.25
776.2  2252.5
776.1  2227.0833
776  2269.1667
775.9  2262.5
775.8  2205.4167
775.7  2316.6667
775.6  2216.6667
775.5  2225.4167
775.4  2297.5
775.3  2246.25
775.2  2285
775.1  2215.4167
775  2198.3333

