# Created by:        SpecsLab Prodigy, Version 4.60.2-r85849 
#
# XY-Serializer Export Settings:
#   Comment Prefix:           #
#   Output meta data:         yes
#   Energy Axis:              Binding Energy
#   Count Rate:               Counts per Second
#   Separate Scan Data:       no
#   Separate Channel Data:    no
#   External Channel Data:    yes
#   Transmission Function:    no
#   ErrorBar:                 no
#   Operation Results:        yes
#   Time Zone Format:         UTC
#
# Group:             Spectrum Group
#
# Region:            C1s
# Acquisition Date:  12/16/21 05:02:40 UTC
# Analysis Method:   XPS
# Analyzer:          Phoibos 100 R6
# Analyzer Lens:     LargeArea:1.5kV
# Analyzer Slit:     1:0.2x20\B:open
# Scan Mode:         FixedAnalyzerTransmission
# Curves/Scan:       1
# Values/Curve:      131
# Dwell Time:        0.8
# Excitation Energy: 1486.61
# Binding Energy:    295
# Pass Energy:       30
# Bias Voltage:      90
# Detector Voltage:  2600
# Eff. Workfunction: 4.309
# Source:            X-Ray Dummy
# Comment:           
#
# Cycle: 0
# Number of Scans: 80
#
# Cycle: 0, Curve: 0
# Acquisition Date: 12/16/21 05:02:40 UTC
#
# ColumnLabels: energy counts/s
#
295  1121.1094
294.9  1119.1563
294.8  1113.4688
294.7  1111.6719
294.6  1113.9688
294.5  1113.7344
294.4  1112.3438
294.3  1119.5781
294.2  1113.8281
294.1  1123.8906
294  1119.2031
293.9  1123.0469
293.8  1115.6406
293.7  1121.6563
293.6  1117.625
293.5  1122.6406
293.4  1120.3438
293.3  1117.9844
293.2  1119.2813
293.1  1139.3281
293  1124.6563
292.9  1122.0938
292.8  1120.9063
292.7  1123.5625
292.6  1130.4219
292.5  1134.5625
292.4  1126.4844
292.3  1127.0781
292.2  1135.875
292.1  1130.1094
292  1136.2188
291.9  1140.6094
291.8  1138.0156
291.7  1145.625
291.6  1161.8281
291.5  1144.0156
291.4  1147.5156
291.3  1155.875
291.2  1144.7969
291.1  1155.0781
291  1152.8281
290.9  1159.2969
290.8  1156.9688
290.7  1173.2813
290.6  1179.6563
290.5  1185.9531
290.4  1197.5625
290.3  1223.8594
290.2  1229.8438
290.1  1251.2188
290  1268.9063
289.9  1283.6563
289.8  1328.2969
289.7  1343.3594
289.6  1391.0625
289.5  1429.6563
289.4  1453.2031
289.3  1504.5313
289.2  1557.9063
289.1  1605.0156
289  1679.875
288.9  1732.7031
288.8  1797.5781
288.7  1857.5625
288.6  1909.0938
288.5  1971.0781
288.4  2037.7813
288.3  2088.5
288.2  2144.5156
288.1  2178.8906
288  2216.8594
287.9  2262.4063
287.8  2299.5
287.7  2331.2813
287.6  2349.9844
287.5  2371.4219
287.4  2396.3281
287.3  2411.1094
287.2  2418.5156
287.1  2418.1875
287  2410.8906
286.9  2400.1094
286.8  2372.8906
286.7  2356.9844
286.6  2318.3281
286.5  2272.875
286.4  2210.875
286.3  2144.9531
286.2  2084.6719
286.1  2003.7344
286  1916.1094
285.9  1823.5469
285.8  1749.3906
285.7  1659.0156
285.6  1592.1406
285.5  1513.0156
285.4  1445.9063
285.3  1385.5156
285.2  1335.9375
285.1  1285.5
285  1244.8125
284.9  1214.7344
284.8  1175.5938
284.7  1146.5313
284.6  1126.1094
284.5  1114.7656
284.4  1099.9063
284.3  1074.7031
284.2  1071.9375
284.1  1062.375
284  1054.8438
283.9  1056.6406
283.8  1045.875
283.7  1049.4219
283.6  1051.8438
283.5  1043.0781
283.4  1041.9063
283.3  1041.1563
283.2  1042.0781
283.1  1032.875
283  1034.3438
282.9  1032
282.8  1041.0313
282.7  1031.1563
282.6  1034.25
282.5  1036.9375
282.4  1030.4688
282.3  1020.8594
282.2  1026.4219
282.1  1027.75
282  1023.7969

# Region:            N1s
# Acquisition Date:  12/16/21 08:37:26 UTC
# Analysis Method:   XPS
# Analyzer:          Phoibos 100 R6
# Analyzer Lens:     LargeArea:1.5kV
# Analyzer Slit:     1:0.2x20\B:open
# Scan Mode:         FixedAnalyzerTransmission
# Curves/Scan:       1
# Values/Curve:      131
# Dwell Time:        0.8
# Excitation Energy: 1486.61
# Binding Energy:    408
# Pass Energy:       30
# Bias Voltage:      90
# Detector Voltage:  2600
# Eff. Workfunction: 4.309
# Source:            X-Ray Dummy
# Comment:           
#
# Cycle: 0
# Number of Scans: 200
#
# Cycle: 0, Curve: 0
# Acquisition Date: 12/16/21 08:37:26 UTC
#
# ColumnLabels: energy counts/s
#
408  1172.9688
407.9  1173.9688
407.8  1175.1375
407.7  1172.5875
407.6  1182.3313
407.5  1177.0563
407.4  1176.5813
407.3  1177.4188
407.2  1181.6813
407.1  1176.6313
407  1177.25
406.9  1181.1813
406.8  1182.7375
406.7  1181.5688
406.6  1183.8438
406.5  1183.6
406.4  1185.9688
406.3  1187.05
406.2  1184.1063
406.1  1182.725
406  1184.3875
405.9  1194.525
405.8  1193.2313
405.7  1190.075
405.6  1190.1188
405.5  1196.0188
405.4  1185.8313
405.3  1193.6938
405.2  1193.1438
405.1  1192.6625
405  1197.425
404.9  1196.575
404.8  1198.925
404.7  1201.5625
404.6  1202.7813
404.5  1195.9313
404.4  1206.8688
404.3  1215.65
404.2  1210.1063
404.1  1221.9375
404  1219.3875
403.9  1227.4063
403.8  1231.2188
403.7  1238.3188
403.6  1244.2938
403.5  1256.8688
403.4  1259.6313
403.3  1271.025
403.2  1280.8563
403.1  1295.0063
403  1306.2375
402.9  1316.7375
402.8  1320.2125
402.7  1332.2438
402.6  1347.7188
402.5  1349.2563
402.4  1363.15
402.3  1359.125
402.2  1368.2875
402.1  1377.25
402  1378.2313
401.9  1380.225
401.8  1385.775
401.7  1387.2
401.6  1392.2563
401.5  1392.4875
401.4  1398.2125
401.3  1396.3
401.2  1397.125
401.1  1389.4563
401  1389.1
400.9  1390.975
400.8  1376.9063
400.7  1371.5
400.6  1357.9688
400.5  1357.6375
400.4  1340.8563
400.3  1335.8375
400.2  1309.9
400.1  1299.1625
400  1290.9313
399.9  1265.1375
399.8  1256.825
399.7  1252.8875
399.6  1238.4
399.5  1226.3063
399.4  1219.1375
399.3  1202.375
399.2  1198.25
399.1  1188.3438
399  1189.45
398.9  1177.875
398.8  1177.425
398.7  1175.35
398.6  1163.7188
398.5  1166
398.4  1158.0375
398.3  1160.6375
398.2  1154.3688
398.1  1151.2938
398  1152.6313
397.9  1149.4938
397.8  1148.8688
397.7  1144.45
397.6  1144.8563
397.5  1144.95
397.4  1140.9125
397.3  1140.9313
397.2  1139.9125
397.1  1141.2563
397  1138.6125
396.9  1148.375
396.8  1147.475
396.7  1144.8688
396.6  1137.725
396.5  1133.625
396.4  1129.8125
396.3  1132.65
396.2  1130.125
396.1  1133.2438
396  1128.4375
395.9  1130.1438
395.8  1130.7938
395.7  1134.05
395.6  1135.1938
395.5  1134.475
395.4  1129.325
395.3  1137.5563
395.2  1132.45
395.1  1131.2
395  1127.65

# Region:            overview
# Acquisition Date:  12/15/21 19:29:48 UTC
# Analysis Method:   XPS
# Analyzer:          Phoibos 100 R6
# Analyzer Lens:     LargeArea:1.5kV
# Analyzer Slit:     1:0.2x20\B:open
# Scan Mode:         FixedAnalyzerTransmission
# Curves/Scan:       1
# Values/Curve:      1205
# Dwell Time:        0.2
# Excitation Energy: 1486.61
# Binding Energy:    1200
# Pass Energy:       50
# Bias Voltage:      90
# Detector Voltage:  2600
# Eff. Workfunction: 4.309
# Source:            X-Ray Dummy
# Comment:           
#
# Cycle: 0
# Number of Scans: 1
#
# Cycle: 0, Curve: 0
# Acquisition Date: 12/15/21 19:29:48 UTC
#
# ColumnLabels: energy counts/s
#
1200  8875
1199  8800
1198  9045
1197  8930
1196  8870
1195  9070
1194  9045
1193  9200
1192  9355
1191  9270
1190  9170
1189  9470
1188  8540
1187  9120
1186  8555
1185  8660
1184  8980
1183  9400
1182  8820
1181  9135
1180  8705
1179  8755
1178  9220
1177  8830
1176  8960
1175  8755
1174  9055
1173  8800
1172  8610
1171  8995
1170  8620
1169  8820
1168  9095
1167  8760
1166  9305
1165  8440
1164  8795
1163  8815
1162  8775
1161  9350
1160  9125
1159  8815
1158  8930
1157  8890
1156  9080
1155  8795
1154  8930
1153  9095
1152  8860
1151  8500
1150  8775
1149  9035
1148  8645
1147  9165
1146  9415
1145  9245
1144  9240
1143  8605
1142  8635
1141  8580
1140  8705
1139  8755
1138  8955
1137  8995
1136  8705
1135  8650
1134  9250
1133  9210
1132  9050
1131  8620
1130  8635
1129  9115
1128  9110
1127  8885
1126  8990
1125  9005
1124  9150
1123  8850
1122  9095
1121  8605
1120  8905
1119  9115
1118  8980
1117  8900
1116  8730
1115  8760
1114  9025
1113  8625
1112  8445
1111  8865
1110  9245
1109  8415
1108  9205
1107  9050
1106  8980
1105  8860
1104  8690
1103  8860
1102  8465
1101  8600
1100  8825
1099  8730
1098  8990
1097  9335
1096  8850
1095  8780
1094  8520
1093  8735
1092  8780
1091  8860
1090  9105
1089  9045
1088  8550
1087  8550
1086  8495
1085  8680
1084  9200
1083  9080
1082  8480
1081  8875
1080  8975
1079  8730
1078  8795
1077  8670
1076  9120
1075  8885
1074  8615
1073  8890
1072  8840
1071  8715
1070  9340
1069  8680
1068  8945
1067  8825
1066  8645
1065  8855
1064  8850
1063  9370
1062  8985
1061  9070
1060  8785
1059  8780
1058  8930
1057  9060
1056  9330
1055  8545
1054  8845
1053  8875
1052  9100
1051  8500
1050  8955
1049  8855
1048  8705
1047  8680
1046  9155
1045  9090
1044  9085
1043  9205
1042  9315
1041  8725
1040  8860
1039  8710
1038  9190
1037  8770
1036  9210
1035  9365
1034  8730
1033  9245
1032  9090
1031  8975
1030  8950
1029  8765
1028  9320
1027  8980
1026  8715
1025  9295
1024  9100
1023  9005
1022  9050
1021  8780
1020  8645
1019  9020
1018  9030
1017  8900
1016  8845
1015  8775
1014  9035
1013  8920
1012  8995
1011  9015
1010  8780
1009  9160
1008  9450
1007  9230
1006  9300
1005  9385
1004  9225
1003  9285
1002  9295
1001  9345
1000  9285
999  8675
998  8935
997  8850
996  8795
995  9085
994  8305
993  8125
992  8430
991  8360
990  8370
989  8335
988  8325
987  8615
986  9085
985  8810
984  9630
983  9710
982  10280
981  10010
980  9165
979  9070
978  8830
977  8875
976  8385
975  7895
974  8440
973  7865
972  7575
971  7385
970  6950
969  7095
968  6770
967  7020
966  6765
965  6445
964  6885
963  6885
962  6585
961  6585
960  6655
959  6765
958  6880
957  6675
956  6995
955  6830
954  6810
953  6900
952  7075
951  6745
950  6370
949  6645
948  6460
947  6225
946  6855
945  7000
944  7125
943  6515
942  7010
941  6700
940  6995
939  6825
938  6710
937  7140
936  6835
935  6870
934  6890
933  7070
932  6825
931  6715
930  6565
929  6790
928  6905
927  6415
926  6630
925  6585
924  6790
923  6690
922  6990
921  6660
920  7315
919  6495
918  7060
917  7010
916  6460
915  6805
914  6850
913  6520
912  6945
911  6690
910  6770
909  6840
908  6720
907  6755
906  6810
905  6775
904  6480
903  7015
902  7040
901  6720
900  6605
899  7260
898  7040
897  6835
896  6460
895  6805
894  7040
893  6625
892  6945
891  6905
890  6830
889  6980
888  6920
887  6920
886  6510
885  6790
884  7025
883  7065
882  6935
881  6575
880  6810
879  6965
878  6515
877  6790
876  7040
875  7050
874  7000
873  6985
872  6805
871  6795
870  7105
869  6725
868  7030
867  6965
866  6870
865  6795
864  6710
863  6645
862  6520
861  7160
860  6795
859  7035
858  6780
857  6975
856  8400
855  6970
854  6815
853  6920
852  6590
851  7030
850  6575
849  6760
848  6545
847  6955
846  7155
845  6705
844  6605
843  7100
842  6860
841  6885
840  7075
839  6930
838  6955
837  6720
836  6650
835  6695
834  7010
833  7095
832  6980
831  6965
830  6880
829  6750
828  6960
827  6730
826  6910
825  6785
824  6780
823  6725
822  7165
821  6830
820  7100
819  6555
818  7115
817  7030
816  6675
815  6955
814  6640
813  6965
812  6805
811  7265
810  6675
809  6475
808  6700
807  6800
806  6545
805  7065
804  6815
803  6595
802  6730
801  6905
800  6960
799  6950
798  6800
797  6875
796  6965
795  7185
794  7195
793  6935
792  6810
791  7175
790  6915
789  6935
788  7045
787  6990
786  7135
785  7310
784  6835
783  7520
782  6635
781  6850
780  6955
779  6925
778  6665
777  7060
776  7355
775  6990
774  6420
773  6740
772  6810
771  6805
770  6915
769  6745
768  6985
767  6945
766  7115
765  6980
764  6935
763  6935
762  6855
761  6970
760  7295
759  7265
758  6840
757  7145
756  7140
755  6770
754  7265
753  6955
752  6265
751  6850
750  6750
749  7185
748  7530
747  7230
746  7035
745  6645
744  7210
743  6875
742  7035
741  6860
740  7105
739  6990
738  6655
737  6835
736  6825
735  7325
734  7220
733  6920
732  6985
731  7290
730  6900
729  6885
728  7040
727  7080
726  7185
725  7190
724  6835
723  6715
722  7090
721  6865
720  6970
719  6925
718  7025
717  6730
716  7145
715  6630
714  7250
713  7070
712  6990
711  7090
710  7015
709  7065
708  7040
707  6925
706  7345
705  7005
704  7055
703  7040
702  7030
701  7065
700  6925
699  6945
698  7135
697  7205
696  6840
695  6970
694  7065
693  7205
692  6945
691  7160
690  7135
689  6795
688  7025
687  6765
686  7085
685  7245
684  6580
683  7010
682  6915
681  7215
680  7085
679  7055
678  7190
677  6750
676  7280
675  7130
674  6700
673  6980
672  7390
671  7400
670  6965
669  6985
668  7335
667  6905
666  7310
665  7025
664  7270
663  7060
662  6835
661  7175
660  6840
659  6945
658  6950
657  7170
656  6820
655  6790
654  6820
653  7125
652  7395
651  7270
650  7410
649  7380
648  7125
647  7215
646  7220
645  6750
644  7215
643  6910
642  6960
641  7040
640  7220
639  7140
638  7160
637  7585
636  7570
635  6945
634  7085
633  7160
632  7190
631  7395
630  7200
629  7050
628  7070
627  7200
626  7025
625  7085
624  7160
623  7130
622  7120
621  6780
620  6980
619  6950
618  7095
617  7175
616  6875
615  7360
614  7070
613  7425
612  7030
611  7030
610  7280
609  7045
608  7595
607  7455
606  6970
605  7240
604  7440
603  7070
602  7290
601  7325
600  7385
599  7120
598  7350
597  7115
596  7315
595  7160
594  7095
593  7030
592  6935
591  7440
590  7310
589  7080
588  7370
587  7480
586  7025
585  7465
584  7195
583  7155
582  7195
581  7325
580  7210
579  7490
578  7105
577  7060
576  7320
575  7155
574  7070
573  7195
572  7100
571  6920
570  7180
569  6810
568  7085
567  7190
566  7145
565  7170
564  7430
563  7170
562  7650
561  7150
560  7500
559  7690
558  7760
557  7635
556  7330
555  7530
554  7260
553  7140
552  6455
551  6700
550  6410
549  6050
548  6120
547  5670
546  5285
545  5315
544  5430
543  5330
542  5015
541  5020
540  5215
539  5445
538  6275
537  9195
536  14840
535  18850
534  14555
533  8265
532  5940
531  5065
530  4810
529  4530
528  4700
527  4605
526  5165
525  5395
524  5420
523  4840
522  4680
521  4645
520  4350
519  4370
518  4160
517  4225
516  4070
515  4380
514  4205
513  4230
512  4215
511  4515
510  4190
509  4205
508  4265
507  4075
506  4330
505  4070
504  4085
503  4060
502  4205
501  4100
500  4245
499  4070
498  4035
497  4005
496  4020
495  4235
494  4035
493  4090
492  4290
491  3935
490  3815
489  3975
488  4415
487  4060
486  3880
485  4060
484  3965
483  4185
482  3970
481  4125
480  3875
479  3820
478  3885
477  3965
476  4080
475  4175
474  4205
473  3870
472  4055
471  3970
470  4090
469  3950
468  3960
467  4480
466  3975
465  4220
464  4160
463  4170
462  4370
461  3880
460  3635
459  3850
458  4135
457  3810
456  3855
455  3785
454  3735
453  3900
452  3795
451  4010
450  3830
449  3820
448  4120
447  3730
446  3810
445  3560
444  3765
443  3755
442  3975
441  4000
440  3820
439  3700
438  3720
437  4015
436  3810
435  3965
434  3705
433  3720
432  3825
431  3615
430  3780
429  3860
428  3970
427  3760
426  3975
425  3875
424  3940
423  4040
422  3865
421  3695
420  4180
419  4000
418  3780
417  3890
416  3995
415  3705
414  3630
413  3495
412  3745
411  3960
410  3880
409  3710
408  3575
407  3825
406  4025
405  3795
404  4055
403  4235
402  4605
401  4200
400  4085
399  3725
398  3630
397  3560
396  3665
395  3370
394  3760
393  3735
392  3605
391  3660
390  3405
389  3780
388  3485
387  3305
386  3420
385  3630
384  3370
383  3390
382  3440
381  3210
380  3315
379  3355
378  3575
377  3425
376  3570
375  3410
374  3670
373  3625
372  3430
371  3520
370  3365
369  3435
368  3585
367  3515
366  3440
365  3595
364  3490
363  3495
362  3520
361  3400
360  3610
359  3530
358  3330
357  3215
356  3370
355  3450
354  3400
353  3690
352  3510
351  3635
350  3590
349  3795
348  3700
347  3550
346  3590
345  3490
344  3480
343  3615
342  3525
341  3315
340  3480
339  3595
338  3290
337  3560
336  3330
335  3345
334  3635
333  3635
332  3455
331  3645
330  3725
329  3395
328  3370
327  3550
326  3370
325  3410
324  3485
323  3495
322  3560
321  3545
320  3465
319  3800
318  3645
317  3735
316  3545
315  3445
314  3665
313  3340
312  3460
311  3580
310  3645
309  3635
308  3435
307  3380
306  3655
305  3640
304  3375
303  3565
302  3380
301  3300
300  3240
299  3525
298  3425
297  3240
296  3400
295  3380
294  3575
293  3325
292  3600
291  3580
290  4250
289  5150
288  6155
287  6480
286  5205
285  4130
284  3405
283  3040
282  3140
281  3205
280  3070
279  3035
278  3420
277  3340
276  3230
275  3120
274  3115
273  3170
272  3040
271  2885
270  2795
269  3040
268  2975
267  2895
266  2960
265  3260
264  2965
263  3200
262  2955
261  2870
260  2825
259  2860
258  2870
257  3045
256  2875
255  3005
254  2875
253  2945
252  2875
251  2845
250  2860
249  3195
248  2905
247  2995
246  2815
245  2935
244  3085
243  3300
242  3145
241  3185
240  3155
239  3000
238  3250
237  3040
236  2825
235  2820
234  2690
233  2910
232  2975
231  3075
230  3015
229  2965
228  3195
227  2965
226  2660
225  2645
224  2480
223  2515
222  2455
221  2365
220  2450
219  2460
218  2510
217  2300
216  2655
215  2415
214  2510
213  2350
212  2330
211  2265
210  2340
209  2345
208  2160
207  2265
206  2320
205  2365
204  2400
203  2385
202  2475
201  2185
200  2425
199  2320
198  2240
197  2105
196  2300
195  2400
194  2160
193  2295
192  2230
191  2285
190  2345
189  2270
188  2250
187  2285
186  2310
185  2300
184  2300
183  2430
182  2365
181  2255
180  2475
179  2515
178  2320
177  2435
176  2550
175  2305
174  2330
173  2330
172  2085
171  2340
170  2000
169  2155
168  2075
167  2005
166  1925
165  1920
164  1960
163  1915
162  1955
161  1975
160  2325
159  2720
158  3345
157  3860
156  3595
155  2990
154  2390
153  2040
152  1790
151  1980
150  1905
149  1830
148  2080
147  2035
146  1980
145  2015
144  1880
143  1920
142  1875
141  1695
140  1900
139  1765
138  1615
137  1725
136  1900
135  1690
134  1925
133  1810
132  1965
131  2020
130  1805
129  2015
128  2035
127  1975
126  1830
125  1900
124  1890
123  1875
122  1575
121  1650
120  1550
119  1895
118  1655
117  1685
116  1630
115  1540
114  1570
113  1525
112  1650
111  1460
110  1605
109  1775
108  1940
107  2930
106  3470
105  3150
104  2205
103  1710
102  1380
101  1415
100  1575
99  1555
98  1505
97  1550
96  1735
95  1725
94  1625
93  1505
92  1525
91  1520
90  1595
89  1440
88  1525
87  1455
86  1250
85  1510
84  1670
83  1340
82  1280
81  1355
80  1375
79  1475
78  1415
77  1430
76  1465
75  1520
74  1230
73  1505
72  1445
71  1505
70  1405
69  1420
68  1500
67  1450
66  1500
65  1455
64  1295
63  1460
62  1475
61  1460
60  1440
59  1390
58  1385
57  1425
56  1395
55  1285
54  1465
53  1455
52  1315
51  1280
50  1690
49  1500
48  1535
47  1400
46  1460
45  1350
44  1425
43  1480
42  1445
41  1540
40  1255
39  1415
38  1380
37  1335
36  1190
35  1405
34  1280
33  1265
32  1550
31  1285
30  1630
29  1820
28  1960
27  1855
26  1675
25  1860
24  1810
23  1485
22  1415
21  1165
20  1185
19  1050
18  980
17  1135
16  1135
15  1135
14  1090
13  1090
12  1085
11  1000
10  1065
9  1105
8  995
7  970
6  985
5  980
4  860
3  800
2  910
1  935
-2.2737368e-013  915
-1  990
-2  925
-3  960
-4  935

# Region:            Si2p
# Acquisition Date:  12/16/21 03:13:49 UTC
# Analysis Method:   XPS
# Analyzer:          Phoibos 100 R6
# Analyzer Lens:     LargeArea:1.5kV
# Analyzer Slit:     1:0.2x20\B:open
# Scan Mode:         FixedAnalyzerTransmission
# Curves/Scan:       1
# Values/Curve:      141
# Dwell Time:        0.8
# Excitation Energy: 1486.61
# Binding Energy:    112
# Pass Energy:       30
# Bias Voltage:      90
# Detector Voltage:  2600
# Eff. Workfunction: 4.309
# Source:            X-Ray Dummy
# Comment:           
#
# Cycle: 0
# Number of Scans: 50
#
# Cycle: 0, Curve: 0
# Acquisition Date: 12/16/21 03:13:49 UTC
#
# ColumnLabels: energy counts/s
#
112  560.325
111.9  539
111.8  540.4
111.7  534.925
111.6  533.975
111.5  537.6
111.4  538.15
111.3  546.1
111.2  539.975
111.1  544.975
111  544.275
110.9  542.8
110.8  538.175
110.7  544.225
110.6  534.475
110.5  545
110.4  540.525
110.3  544.125
110.2  539.225
110.1  539.8
110  544.55
109.9  543.225
109.8  547.6
109.7  555.375
109.6  557.3
109.5  543.275
109.4  549.975
109.3  549.725
109.2  548.55
109.1  555.25
109  556.45
108.9  558.1
108.8  564.775
108.7  567.55
108.6  572.45
108.5  570.05
108.4  580.75
108.3  587.15
108.2  597.75
108.1  601.2
108  621.925
107.9  639.225
107.8  648.725
107.7  669.75
107.6  687.475
107.5  713.075
107.4  738.475
107.3  764.8
107.2  805.775
107.1  837.25
107  874.95
106.9  915.3
106.8  965.3
106.7  1002.4
106.6  1056.45
106.5  1102.8
106.4  1143.175
106.3  1164.675
106.2  1218.575
106.1  1254.625
106  1280.875
105.9  1301.775
105.8  1319.4
105.7  1329
105.6  1330.275
105.5  1330.6
105.4  1301.6
105.3  1286.225
105.2  1254.75
105.1  1222.6
105  1181.075
104.9  1142.175
104.8  1100.2
104.7  1046.375
104.6  1000.625
104.5  950.7
104.4  919.925
104.3  873.075
104.2  823.925
104.1  799.05
104  759.825
103.9  719.675
103.8  693.925
103.7  675.9
103.6  656.8
103.5  637.25
103.4  616.075
103.3  599.975
103.2  594.85
103.1  582.725
103  579.625
102.9  566.3
102.8  556.225
102.7  553.125
102.6  547.275
102.5  547.675
102.4  533.925
102.3  538.7
102.2  531.5
102.1  538.075
102  533.325
101.9  534.5
101.8  526.2
101.7  525.325
101.6  536.125
101.5  530.75
101.4  525.525
101.3  517.1
101.2  520.4
101.1  535.325
101  520.75
100.9  519.675
100.8  517.575
100.7  527
100.6  533.3
100.5  520.725
100.4  524.25
100.3  523
100.2  515.5
100.1  521.75
100  519.2
99.9  526.975
99.8  520.025
99.7  517.725
99.6  519.875
99.5  520.125
99.4  515.05
99.3  518.925
99.2  519.85
99.1  516.475
99  516.9
98.9  519.325
98.8  514.375
98.7  515.025
98.6  517.925
98.5  515.725
98.4  516.9
98.3  515.675
98.2  525.875
98.1  517.9
98  522.125

# Region:            O1s
# Acquisition Date:  12/16/21 03:16:08 UTC
# Analysis Method:   XPS
# Analyzer:          Phoibos 100 R6
# Analyzer Lens:     LargeArea:1.5kV
# Analyzer Slit:     1:0.2x20\B:open
# Scan Mode:         FixedAnalyzerTransmission
# Curves/Scan:       1
# Values/Curve:      171
# Dwell Time:        0.8
# Excitation Energy: 1486.61
# Binding Energy:    545
# Pass Energy:       30
# Bias Voltage:      90
# Detector Voltage:  2600
# Eff. Workfunction: 4.309
# Source:            X-Ray Dummy
# Comment:           
#
# Cycle: 0
# Number of Scans: 50
#
# Cycle: 0, Curve: 0
# Acquisition Date: 12/16/21 03:16:08 UTC
#
# ColumnLabels: energy counts/s
#
545  1652.825
544.9  1641.5
544.8  1621.775
544.7  1620.425
544.6  1606
544.5  1612.9
544.4  1604.125
544.3  1605.45
544.2  1582.775
544.1  1585.6
544  1572.5
543.9  1569.525
543.8  1569.45
543.7  1569.425
543.6  1538.775
543.5  1564.825
543.4  1560.225
543.3  1551.825
543.2  1537
543.1  1550.525
543  1542.575
542.9  1523.825
542.8  1531
542.7  1524.325
542.6  1523.25
542.5  1538.625
542.4  1521.925
542.3  1531.75
542.2  1527.925
542.1  1520.175
542  1532.1
541.9  1522.725
541.8  1533.525
541.7  1517.925
541.6  1518.05
541.5  1519.55
541.4  1511.4
541.3  1514.625
541.2  1520.5
541.1  1503.15
541  1514.15
540.9  1518.125
540.8  1502.575
540.7  1514.075
540.6  1515.975
540.5  1510.15
540.4  1513.925
540.3  1524.95
540.2  1527.225
540.1  1518.55
540  1522.875
539.9  1532.375
539.8  1521.275
539.7  1540.875
539.6  1544
539.5  1552.025
539.4  1542.55
539.3  1549.85
539.2  1550.5
539.1  1557.4
539  1560.55
538.9  1582.725
538.8  1580.725
538.7  1597.55
538.6  1591.85
538.5  1625.5
538.4  1619.55
538.3  1642.25
538.2  1660.85
538.1  1683.55
538  1698.95
537.9  1728.05
537.8  1758.675
537.7  1792.825
537.6  1827.475
537.5  1886.275
537.4  1948.025
537.3  2014.65
537.2  2070.675
537.1  2172.625
537  2277.05
536.9  2411.925
536.8  2552.475
536.7  2746.5
536.6  2899
536.5  3107.725
536.4  3315.7
536.3  3590.975
536.2  3835.225
536.1  4120.425
536  4413.15
535.9  4735.8
535.8  5053.9
535.7  5356.25
535.6  5675.6
535.5  5959.675
535.4  6214.525
535.3  6468.325
535.2  6672.35
535.1  6841.6
535  6943.075
534.9  6998.3
534.8  6997.4
534.7  6931.05
534.6  6782.875
534.5  6610.125
534.4  6367.25
534.3  6073.175
534.2  5771.9
534.1  5434.75
534  5072.95
533.9  4719.475
533.8  4379.95
533.7  4014.7
533.6  3704.525
533.5  3397.825
533.4  3151.15
533.3  2906.975
533.2  2689.025
533.1  2512.75
533  2347.425
532.9  2227.5
532.8  2103.7
532.7  2020.35
532.6  1930.9
532.5  1888.25
532.4  1831
532.3  1789.65
532.2  1748.75
532.1  1710.05
532  1692.8
531.9  1669.25
531.8  1649.375
531.7  1628.575
531.6  1622.975
531.5  1600.075
531.4  1609.375
531.3  1568.775
531.2  1561.725
531.1  1531.7
531  1518.75
530.9  1504.2
530.8  1479.725
530.7  1480.275
530.6  1471.925
530.5  1442.125
530.4  1455.975
530.3  1444.9
530.2  1429.65
530.1  1410.125
530  1417.925
529.9  1401.2
529.8  1402.275
529.7  1396.05
529.6  1398.85
529.5  1385.7
529.4  1381.75
529.3  1383.175
529.2  1377.925
529.1  1375.175
529  1374.075
528.9  1364.45
528.8  1355.375
528.7  1362.575
528.6  1371.775
528.5  1365.825
528.4  1347.925
528.3  1349.7
528.2  1334.325
528.1  1348.025
528  1358.875

# Region:            Cl2p
# Acquisition Date:  12/16/21 03:17:47 UTC
# Analysis Method:   XPS
# Analyzer:          Phoibos 100 R6
# Analyzer Lens:     LargeArea:1.5kV
# Analyzer Slit:     1:0.2x20\B:open
# Scan Mode:         FixedAnalyzerTransmission
# Curves/Scan:       1
# Values/Curve:      121
# Dwell Time:        0.8
# Excitation Energy: 1486.61
# Binding Energy:    206
# Pass Energy:       30
# Bias Voltage:      90
# Detector Voltage:  2600
# Eff. Workfunction: 4.309
# Source:            X-Ray Dummy
# Comment:           
#
# Cycle: 0
# Number of Scans: 50
#
# Cycle: 0, Curve: 0
# Acquisition Date: 12/16/21 03:17:47 UTC
#
# ColumnLabels: energy counts/s
#
206  781.825
205.9  778
205.8  778.275
205.7  778.25
205.6  775.725
205.5  770.775
205.4  781.225
205.3  777.025
205.2  789.75
205.1  779.6
205  779.275
204.9  787.775
204.8  775.65
204.7  777.2
204.6  774.425
204.5  779.9
204.4  778.125
204.3  783.35
204.2  776.125
204.1  778.75
204  780.225
203.9  779.125
203.8  783.725
203.7  782.525
203.6  767.475
203.5  785.975
203.4  777.675
203.3  777.725
203.2  784.675
203.1  786.125
203  781.825
202.9  777.3
202.8  780.025
202.7  780.8
202.6  785.825
202.5  785.925
202.4  782.625
202.3  788.525
202.2  777.425
202.1  778.05
202  788.775
201.9  776.45
201.8  783.375
201.7  777.55
201.6  777.775
201.5  778.075
201.4  778.65
201.3  775.875
201.2  782.05
201.1  771.825
201  779
200.9  780.8
200.8  779.1
200.7  777.175
200.6  782.15
200.5  784.25
200.4  778.7
200.3  773.525
200.2  778.025
200.1  780.25
200  781.7
199.9  784.4
199.8  778.6
199.7  781.25
199.6  777.55
199.5  775.225
199.4  775.6
199.3  780.45
199.2  770.15
199.1  783.225
199  778.475
198.9  787.775
198.8  779.825
198.7  781.575
198.6  772.25
198.5  778.85
198.4  771.9
198.3  772.7
198.2  779.225
198.1  773.7
198  770.675
197.9  770.025
197.8  778.2
197.7  773.725
197.6  769.5
197.5  769.975
197.4  782.875
197.3  771.625
197.2  776.275
197.1  773.35
197  779.225
196.9  779
196.8  773.9
196.7  784
196.6  773.475
196.5  776.825
196.4  770.075
196.3  772.125
196.2  771.85
196.1  774.425
196  789.425
195.9  772.575
195.8  783.5
195.7  772.7
195.6  783.975
195.5  773.05
195.4  777.825
195.3  769.175
195.2  773.85
195.1  768.95
195  775.45
194.9  773.7
194.8  766.6
194.7  777.375
194.6  777.425
194.5  770.325
194.4  768.55
194.3  771.075
194.2  781.375
194.1  774.2
194  771.025

