# Created by:        SpecsLab Prodigy, Version 4.60.2-r85849
#
# XY-Serializer Export Settings:
#   Comment Prefix:           #
#   Output meta data:         yes
#   Energy Axis:              Binding Energy
#   Count Rate:               Counts per Second
#   Separate Scan Data:       no
#   Separate Channel Data:    no
#   External Channel Data:    yes
#   Transmission Function:    no
#   ErrorBar:                 no
#   Operation Results:        yes
#   Time Zone Format:         UTC
#
# Group:             Spectrum Group
#
# Region:            Ba3d
# Acquisition Date:  04/07/22 23:16:25 UTC
# Analysis Method:   XPS
# Analyzer:          Phoibos 100 R6
# Analyzer Lens:     LargeArea:1.5kV
# Analyzer Slit:     1:0.2x20\B:open
# Scan Mode:         FixedAnalyzerTransmission
# Curves/Scan:       1
# Values/Curve:      121
# Dwell Time:        0.8
# Excitation Energy: 1486.61
# Binding Energy:    789
# Pass Energy:       30
# Bias Voltage:      90
# Detector Voltage:  2600
# Eff. Workfunction: 4.309
# Source:            X-Ray Dummy
# Comment:
#
# Cycle: 0
# Number of Scans: 20
#
# Cycle: 0, Curve: 0
# Acquisition Date: 04/07/22 23:16:25 UTC
#
# ColumnLabels: energy counts/s
#
789  3256
788.9  3260.75
788.8  3266.9375
788.7  3253.0625
788.6  3225.75
788.5  3243.8125
788.4  3246.875
788.3  3256.6875
788.2  3243.125
788.1  3264.8125
788  3311.8125
787.9  3337.9375
787.8  3389.375
787.7  3365.4375
787.6  3424.9375
787.5  3462.625
787.4  3496.6875
787.3  3501.875
787.2  3559.5
787.1  3616.75
787  3668.9375
786.9  3736.375
786.8  3810.125
786.7  3976.875
786.6  4084.75
786.5  4253.4375
786.4  4413.1875
786.3  4691.625
786.2  4937.4375
786.1  5237.5625
786  5631.75
785.9  5980.625
785.8  6470.25
785.7  7025.5625
785.6  7599.6875
785.5  8291.6875
785.4  8962.625
785.3  9733.4375
785.2  10484.625
785.1  11362
785  12119.188
784.9  12906.25
784.8  13707.875
784.7  14426.438
784.6  15018.75
784.5  15478.438
784.4  15820.063
784.3  16063.75
784.2  16018.063
784.1  15924.563
784  15616.313
783.9  15155.5
783.8  14531.875
783.7  13851.063
783.6  13018.25
783.5  12184.375
783.4  11303.563
783.3  10324.563
783.2  9492.875
783.1  8725.1875
783  7931.625
782.9  7291
782.8  6664.875
782.7  6145
782.6  5660.0625
782.5  5261.5
782.4  4881.625
782.3  4634.875
782.2  4374.75
782.1  4152.125
782  3975.125
781.9  3789
781.8  3657.5625
781.7  3510.5625
781.6  3382.375
781.5  3282.0625
781.4  3189.6875
781.3  3088.3125
781.2  3016.75
781.1  2973.9375
781  2880.3125
780.9  2828.5625
780.8  2748.875
780.7  2722.1875
780.6  2682.3125
780.5  2645.25
780.4  2627.8125
780.3  2558.4375
780.2  2541.875
780.1  2511.4375
780  2499.4375
779.9  2488.9375
779.8  2462.5
779.7  2453.9375
779.6  2430
779.5  2411.3125
779.4  2423.9375
779.3  2402.125
779.2  2384.25
779.1  2382.6875
779  2394.5
778.9  2339.375
778.8  2370.375
778.7  2349.375
778.6  2346.5625
778.5  2302.5
778.4  2310.1875
778.3  2308.1875
778.2  2293.125
778.1  2299.3125
778  2281.125
777.9  2285.125
777.8  2258.5
777.7  2258.6875
777.6  2254.0625
777.5  2257.1875
777.4  2225.1875
777.3  2227.0625
777.2  2237.875
777.1  2240.25
777  2235.125

# Region:            C1s
# Acquisition Date:  04/08/22 08:03:53 UTC
# Analysis Method:   XPS
# Analyzer:          Phoibos 100 R6
# Analyzer Lens:     LargeArea:1.5kV
# Analyzer Slit:     1:0.2x20\B:open
# Scan Mode:         FixedAnalyzerTransmission
# Curves/Scan:       1
# Values/Curve:      151
# Dwell Time:        0.8
# Excitation Energy: 1486.61
# Binding Energy:    295
# Pass Energy:       30
# Bias Voltage:      90
# Detector Voltage:  2600
# Eff. Workfunction: 4.309
# Source:            X-Ray Dummy
# Comment:
#
# Cycle: 0
# Number of Scans: 97
#
# Cycle: 0, Curve: 0
# Acquisition Date: 04/08/22 08:03:53 UTC
#
# ColumnLabels: energy counts/s
#
295  782.08763
294.9  781.67526
294.8  783.2732
294.7  781.80412
294.6  774.4201
294.5  780.41237
294.4  782.16495
294.3  788.75
294.2  782.26804
294.1  780.4768
294  780.8634
293.9  781.9201
293.8  784.26546
293.7  784.6134
293.6  780.7732
293.5  784.27835
293.4  787.25515
293.3  795.09021
293.2  794.34278
293.1  792.25515
293  794.79381
292.9  797.77062
292.8  799.04639
292.7  806.81701
292.6  809.53608
292.5  809.89691
292.4  828.04124
292.3  816.94588
292.2  822.70619
292.1  827.15206
292  834.47165
291.9  828.53093
291.8  838.78866
291.7  840.34794
291.6  844.35567
291.5  853.77577
291.4  855.52835
291.3  868.85309
291.2  871.88144
291.1  882.5
291  884.5232
290.9  893.35052
290.8  898.86598
290.7  915.74742
290.6  929.02062
290.5  938.77577
290.4  944.21392
290.3  970.4768
290.2  974.25258
290.1  987.17784
290  1001.7526
289.9  1019.5876
289.8  1028.6598
289.7  1044.8711
289.6  1063.4278
289.5  1080.3222
289.4  1106.7139
289.3  1122.8479
289.2  1146.7139
289.1  1167.2423
289  1186.5979
288.9  1210.9278
288.8  1229.6263
288.7  1251.3273
288.6  1279.3041
288.5  1290.1418
288.4  1308.2603
288.3  1315.2964
288.2  1309.4845
288.1  1304.9871
288  1287.0103
287.9  1274.3814
287.8  1259.7165
287.7  1228.1443
287.6  1193.0541
287.5  1159.7809
287.4  1123.0928
287.3  1079.7423
287.2  1047.3454
287.1  1009.1881
287  982.08763
286.9  955.60567
286.8  929.76804
286.7  900.06443
286.6  893.10567
286.5  866.79124
286.4  847.62887
286.3  834.00773
286.2  820.90206
286.1  815.02577
286  808.31186
285.9  802.35825
285.8  788.31186
285.7  784.54897
285.6  773.78866
285.5  776.71392
285.4  770.27062
285.3  761.00515
285.2  764.63918
285.1  758.68557
285  748.40206
284.9  751.62371
284.8  744.71649
284.7  743.65979
284.6  751.00515
284.5  741.27577
284.4  744.07216
284.3  745.16753
284.2  740.95361
284.1  746.27577
284  740.99227
283.9  740.23196
283.8  739.75515
283.7  740.63144
283.6  754.18814
283.5  741.43041
283.4  739.66495
283.3  740.69588
283.2  733.15722
283.1  739.57474
283  740.55412
282.9  736.32732
282.8  739.16237
282.7  736.94588
282.6  740.16753
282.5  739.34278
282.4  740.88918
282.3  735.88918
282.2  738.49227
282.1  735.48969
282  738.24742
281.9  737.28093
281.8  750.27062
281.7  740.69588
281.6  742.3067
281.5  738.44072
281.4  734.39433
281.3  732.15206
281.2  737.22938
281.1  742.04897
281  735.78608
280.9  733.82732
280.8  732.65464
280.7  735.8634
280.6  735.55412
280.5  727.65464
280.4  738.82732
280.3  737.5
280.2  748.72423
280.1  735.10309
280  733.10567

# Region:            N1s (2)
# Acquisition Date:  04/07/22 16:33:23 UTC
# Analysis Method:   XPS
# Analyzer:          Phoibos 100 R6
# Analyzer Lens:     LargeArea:1.5kV
# Analyzer Slit:     1:0.2x20\B:open
# Scan Mode:         FixedAnalyzerTransmission
# Curves/Scan:       1
# Values/Curve:      101
# Dwell Time:        0.8
# Excitation Energy: 1486.61
# Binding Energy:    407
# Pass Energy:       30
# Bias Voltage:      90
# Detector Voltage:  2600
# Eff. Workfunction: 4.309
# Source:            X-Ray Dummy
# Comment:
#
# Cycle: 0
# Number of Scans: 1
#
# Cycle: 0, Curve: 0
# Acquisition Date: 04/07/22 16:33:23 UTC
#
# ColumnLabels: energy counts/s
#
407  741.25
406.9  725
406.8  767.5
406.7  735
406.6  722.5
406.5  751.25
406.4  711.25
406.3  763.75
406.2  766.25
406.1  717.5
406  758.75
405.9  827.5
405.8  830
405.7  778.75
405.6  842.5
405.5  771.25
405.4  778.75
405.3  760
405.2  743.75
405.1  765
405  778.75
404.9  803.75
404.8  825
404.7  852.5
404.6  791.25
404.5  790
404.4  850
404.3  818.75
404.2  793.75
404.1  725
404  775
403.9  791.25
403.8  836.25
403.7  876.25
403.6  862.5
403.5  771.25
403.4  800
403.3  805
403.2  818.75
403.1  775
403  757.5
402.9  847.5
402.8  716.25
402.7  821.25
402.6  731.25
402.5  788.75
402.4  767.5
402.3  741.25
402.2  736.25
402.1  705
402  786.25
401.9  738.75
401.8  765
401.7  763.75
401.6  758.75
401.5  725
401.4  690
401.3  768.75
401.2  755
401.1  738.75
401  705
400.9  703.75
400.8  723.75
400.7  758.75
400.6  705
400.5  691.25
400.4  698.75
400.3  751.25
400.2  760
400.1  733.75
400  732.5
399.9  758.75
399.8  745
399.7  812.5
399.6  736.25
399.5  732.5
399.4  743.75
399.3  713.75
399.2  781.25
399.1  718.75
399  753.75
398.9  781.25
398.8  762.5
398.7  745
398.6  708.75
398.5  728.75
398.4  710
398.3  786.25
398.2  756.25
398.1  722.5
398  783.75
397.9  731.25
397.8  742.5
397.7  760
397.6  750
397.5  768.75
397.4  760
397.3  723.75
397.2  745
397.1  747.5
397  702.5

# Region:            O1s
# Acquisition Date:  04/08/22 08:05:47 UTC
# Analysis Method:   XPS
# Analyzer:          Phoibos 100 R6
# Analyzer Lens:     LargeArea:1.5kV
# Analyzer Slit:     1:0.2x20\B:open
# Scan Mode:         FixedAnalyzerTransmission
# Curves/Scan:       1
# Values/Curve:      141
# Dwell Time:        0.8
# Excitation Energy: 1486.61
# Binding Energy:    541
# Pass Energy:       30
# Bias Voltage:      90
# Detector Voltage:  2600
# Eff. Workfunction: 4.309
# Source:            X-Ray Dummy
# Comment:
#
# Cycle: 0
# Number of Scans: 97
#
# Cycle: 0, Curve: 0
# Acquisition Date: 04/08/22 08:05:47 UTC
#
# ColumnLabels: energy counts/s
#
541  931.59794
540.9  944.29124
540.8  940.90206
540.7  946.76546
540.6  947.73196
540.5  954.98711
540.4  950.96649
540.3  956.97165
540.2  957.47423
540.1  966.22423
540  973.72423
539.9  976.50773
539.8  985.41237
539.7  985.3866
539.6  989.63918
539.5  998.06701
539.4  1011.134
539.3  1013.7371
539.2  1015.7474
539.1  1033.8273
539  1036.018
538.9  1052.7577
538.8  1062.384
538.7  1082.7577
538.6  1098.4149
538.5  1127.951
538.4  1152.0747
538.3  1192.1392
538.2  1240.5928
538.1  1289.2526
538  1357.1907
537.9  1427.732
537.8  1519.2397
537.7  1610.5412
537.6  1722.2938
537.5  1847.5258
537.4  1982.5515
537.3  2141.9459
537.2  2311.7784
537.1  2494.5103
537  2676.1985
536.9  2855.0387
536.8  3050.9536
536.7  3229.6649
536.6  3409.4201
536.5  3545.5799
536.4  3672.8222
536.3  3774.549
536.2  3822.1263
536.1  3847.0103
536  3843.8273
535.9  3778.0026
535.8  3690.2062
535.7  3564.4201
535.6  3401.3015
535.5  3231.134
535.4  3058.3634
535.3  2831.134
535.2  2642.1778
535.1  2452.7706
535  2262.9639
534.9  2101.2758
534.8  1936.5077
534.7  1787.7706
534.6  1665.6314
534.5  1573.4407
534.4  1466.6108
534.3  1389.549
534.2  1321.5851
534.1  1270.5928
534  1229.5232
533.9  1182.7062
533.8  1144.7809
533.7  1121.3531
533.6  1096.3531
533.5  1067.0103
533.4  1050.4253
533.3  1020.2448
533.2  1012.2165
533.1  990.1933
533  973.67268
532.9  967.53866
532.8  952.20361
532.7  939.04639
532.6  923.44072
532.5  927.52577
532.4  914.51031
532.3  907.84794
532.2  908.24742
532.1  895.42526
532  897.35825
531.9  891.26289
531.8  890.73454
531.7  892.39691
531.6  883.37629
531.5  880.46392
531.4  886.76546
531.3  883.73711
531.2  884.1366
531.1  877.34536
531  876.23711
530.9  874.74227
530.8  878.35052
530.7  870.82474
530.6  871.73969
530.5  869.87113
530.4  868.87887
530.3  863.99485
530.2  862.61598
530.1  851.86856
530  870.29639
529.9  854.26546
529.8  850.28351
529.7  853.24742
529.6  841.68814
529.5  838.69845
529.4  840.30928
529.3  843.33763
529.2  836.55928
529.1  835.95361
529  830.33505
528.9  832.98969
528.8  830.34794
528.7  831.01804
528.6  836.50773
528.5  835.1933
528.4  842.29381
528.3  840.27062
528.2  841.31443
528.1  852.1134
528  855.3866
527.9  861.03093
527.8  866.77835
527.7  880.33505
527.6  888.26031
527.5  901.80412
527.4  906.45619
527.3  930.55412
527.2  943.73711
527.1  952.73196
527  960.56701

# Region:            Si2p (3)
# Acquisition Date:  04/07/22 16:36:49 UTC
# Analysis Method:   XPS
# Analyzer:          Phoibos 100 R6
# Analyzer Lens:     LargeArea:1.5kV
# Analyzer Slit:     1:0.2x20\B:open
# Scan Mode:         FixedAnalyzerTransmission
# Curves/Scan:       1
# Values/Curve:      111
# Dwell Time:        0.8
# Excitation Energy: 1486.61
# Binding Energy:    110
# Pass Energy:       30
# Bias Voltage:      90
# Detector Voltage:  2600
# Eff. Workfunction: 4.309
# Source:            X-Ray Dummy
# Comment:
#
# Cycle: 0
# Number of Scans: 1
#
# Cycle: 0, Curve: 0
# Acquisition Date: 04/07/22 16:36:49 UTC
#
# ColumnLabels: energy counts/s
#
110  536.25
109.9  521.25
109.8  551.25
109.7  528.75
109.6  615
109.5  542.5
109.4  551.25
109.3  583.75
109.2  585
109.1  607.5
109  688.75
108.9  640
108.8  726.25
108.7  721.25
108.6  702.5
108.5  766.25
108.4  836.25
108.3  888.75
108.2  946.25
108.1  938.75
108  951.25
107.9  968.75
107.8  1017.5
107.7  1046.25
107.6  1021.25
107.5  1133.75
107.4  1125
107.3  1040
107.2  1068.75
107.1  958.75
107  1085
106.9  913.75
106.8  942.5
106.7  922.5
106.6  818.75
106.5  821.25
106.4  866.25
106.3  731.25
106.2  721.25
106.1  703.75
106  638.75
105.9  677.5
105.8  582.5
105.7  612.5
105.6  605
105.5  557.5
105.4  540
105.3  565
105.2  545
105.1  508.75
105  510
104.9  480
104.8  532.5
104.7  526.25
104.6  516.25
104.5  537.5
104.4  490
104.3  522.5
104.2  546.25
104.1  492.5
104  455
103.9  516.25
103.8  450
103.7  503.75
103.6  498.75
103.5  498.75
103.4  512.5
103.3  483.75
103.2  457.5
103.1  486.25
103  483.75
102.9  470
102.8  490
102.7  476.25
102.6  460
102.5  491.25
102.4  457.5
102.3  493.75
102.2  453.75
102.1  508.75
102  447.5
101.9  448.75
101.8  447.5
101.7  446.25
101.6  430
101.5  441.25
101.4  461.25
101.3  471.25
101.2  425
101.1  422.5
101  433.75
100.9  416.25
100.8  373.75
100.7  448.75
100.6  441.25
100.5  427.5
100.4  460
100.3  453.75
100.2  387.5
100.1  412.5
100  417.5
99.9  412.5
99.8  431.25
99.7  413.75
99.6  410
99.5  462.5
99.4  457.5
99.3  448.75
99.2  455
99.1  438.75
99  487.5

# Region:            Cl2p
# Acquisition Date:  04/08/22 03:40:40 UTC
# Analysis Method:   XPS
# Analyzer:          Phoibos 100 R6
# Analyzer Lens:     LargeArea:1.5kV
# Analyzer Slit:     1:0.2x20\B:open
# Scan Mode:         FixedAnalyzerTransmission
# Curves/Scan:       1
# Values/Curve:      111
# Dwell Time:        0.8
# Excitation Energy: 1486.61
# Binding Energy:    207
# Pass Energy:       30
# Bias Voltage:      90
# Detector Voltage:  2600
# Eff. Workfunction: 4.309
# Source:            X-Ray Dummy
# Comment:
#
# Cycle: 0
# Number of Scans: 50
#
# Cycle: 0, Curve: 0
# Acquisition Date: 04/08/22 03:40:40 UTC
#
# ColumnLabels: energy counts/s
#
207  750.575
206.9  753.9
206.8  754.425
206.7  747.875
206.6  753.525
206.5  758.3
206.4  757.4
206.3  758.825
206.2  756.25
206.1  760.475
206  764.45
205.9  767.625
205.8  775.075
205.7  774.275
205.6  783.7
205.5  792.125
205.4  795.025
205.3  804.025
205.2  821.325
205.1  837.35
205  858.725
204.9  876.9
204.8  906.975
204.7  937.55
204.6  964.8
204.5  1004.125
204.4  1052.225
204.3  1102.125
204.2  1135.725
204.1  1187.7
204  1238.35
203.9  1292.625
203.8  1342.225
203.7  1387.375
203.6  1420.225
203.5  1462.925
203.4  1491.075
203.3  1506.625
203.2  1538.9
203.1  1562.1
203  1573.6
202.9  1603.025
202.8  1644.4
202.7  1665.5
202.6  1710.525
202.5  1745.2
202.4  1795.225
202.3  1812.15
202.2  1843.65
202.1  1869.775
202  1909.85
201.9  1907.2
201.8  1884.375
201.7  1841.2
201.6  1800.175
201.5  1745.7
201.4  1658.925
201.3  1570.6
201.2  1480.125
201.1  1392.45
201  1308.875
200.9  1213.3
200.8  1126.975
200.7  1062.025
200.6  1008.15
200.5  949.75
200.4  900.7
200.3  864.55
200.2  833.525
200.1  807
200  788.825
199.9  766.425
199.8  756.525
199.7  754.05
199.6  739.2
199.5  732.425
199.4  726.575
199.3  720.55
199.2  718.725
199.1  714.35
199  707.6
198.9  705.125
198.8  706.725
198.7  713.575
198.6  703.525
198.5  708.575
198.4  716.4
198.3  701.475
198.2  712.5
198.1  708.125
198  721.55
197.9  716.825
197.8  730.425
197.7  726.125
197.6  734.525
197.5  741.475
197.4  744.625
197.3  751.3
197.2  759.725
197.1  767.35
197  774.825
196.9  780.875
196.8  791.45
196.7  786.75
196.6  785.525
196.5  803.475
196.4  791.05
196.3  801.65
196.2  804.325
196.1  794.425
196  784.125

# Region:            Si2p (2)
# Acquisition Date:  04/07/22 21:24:04 UTC
# Analysis Method:   XPS
# Analyzer:          Phoibos 100 R6
# Analyzer Lens:     LargeArea:1.5kV
# Analyzer Slit:     1:0.2x20\B:open
# Scan Mode:         FixedAnalyzerTransmission
# Curves/Scan:       1
# Values/Curve:      391
# Dwell Time:        0.8
# Excitation Energy: 1486.61
# Binding Energy:    128
# Pass Energy:       30
# Bias Voltage:      90
# Detector Voltage:  2600
# Eff. Workfunction: 4.309
# Source:            X-Ray Dummy
# Comment:
#
# Cycle: 0
# Number of Scans: 10
#
# Cycle: 0, Curve: 0
# Acquisition Date: 04/07/22 21:24:04 UTC
#
# ColumnLabels: energy counts/s
#
128  532.5
127.9  536.25
127.8  529.125
127.7  526.375
127.6  533
127.5  537.25
127.4  547
127.3  532.625
127.2  556.125
127.1  541.875
127  535.125
126.9  535.75
126.8  539.75
126.7  544.625
126.6  538.875
126.5  544.125
126.4  533.75
126.3  533.375
126.2  542.375
126.1  575
126  533.625
125.9  535.75
125.8  562.75
125.7  519
125.6  550.875
125.5  525.125
125.4  536.875
125.3  520
125.2  546
125.1  547.375
125  545.5
124.9  542.625
124.8  544.625
124.7  527.25
124.6  539.5
124.5  548.5
124.4  533.125
124.3  528.5
124.2  528.25
124.1  540.125
124  537.125
123.9  535
123.8  546.875
123.7  541.5
123.6  536.5
123.5  557.875
123.4  530.625
123.3  530
123.2  555.75
123.1  529.75
123  534.125
122.9  544.125
122.8  567.875
122.7  535.5
122.6  550.75
122.5  539.625
122.4  548.25
122.3  543.125
122.2  553.625
122.1  558.375
122  548.125
121.9  559.25
121.8  551.25
121.7  549.375
121.6  549
121.5  548.875
121.4  549
121.3  535.5
121.2  559.75
121.1  545.625
121  528.625
120.9  546.25
120.8  541.25
120.7  559.5
120.6  540.125
120.5  539.75
120.4  539.5
120.3  542.375
120.2  549.375
120.1  554.875
120  541.125
119.9  543.375
119.8  537.625
119.7  537.25
119.6  528.625
119.5  553.75
119.4  549.375
119.3  525.75
119.2  550
119.1  537.875
119  527.625
118.9  541
118.8  539.875
118.7  517.875
118.6  545.5
118.5  539
118.4  557.125
118.3  545.625
118.2  525.625
118.1  533.125
118  532.75
117.9  520.25
117.8  528.25
117.7  519.125
117.6  524.75
117.5  523.5
117.4  507.375
117.3  520.5
117.2  512.375
117.1  513.375
117  507.25
116.9  504.125
116.8  511
116.7  508
116.6  492
116.5  499.25
116.4  504.75
116.3  496
116.2  501.625
116.1  503
116  487.625
115.9  493.125
115.8  489.5
115.7  489.125
115.6  494.125
115.5  498.875
115.4  490.625
115.3  487.625
115.2  474.5
115.1  467.75
115  470.375
114.9  481.375
114.8  480.375
114.7  471.875
114.6  474.625
114.5  473.625
114.4  468
114.3  464.625
114.2  485.75
114.1  466
114  460.5
113.9  457.625
113.8  463.5
113.7  476.125
113.6  462.375
113.5  459.375
113.4  483.375
113.3  464.875
113.2  472.25
113.1  464.875
113  474.125
112.9  475.125
112.8  476.25
112.7  467.625
112.6  460
112.5  465.125
112.4  472.375
112.3  462.5
112.2  466.5
112.1  472.125
112  463.5
111.9  475.875
111.8  473.375
111.7  464.25
111.6  465.125
111.5  479.25
111.4  479.625
111.3  466
111.2  480.25
111.1  472.25
111  485.5
110.9  466.75
110.8  480.875
110.7  479.125
110.6  495.5
110.5  475
110.4  474.875
110.3  487.875
110.2  499.5
110.1  482.5
110  493.125
109.9  475.625
109.8  489.375
109.7  507.75
109.6  498.25
109.5  511.875
109.4  517.375
109.3  515.375
109.2  516.875
109.1  538.25
109  570.875
108.9  567.375
108.8  553.5
108.7  604
108.6  627.875
108.5  652.625
108.4  652
108.3  684.5
108.2  723.625
108.1  758
108  787.375
107.9  839
107.8  881.25
107.7  893.25
107.6  919.875
107.5  950.375
107.4  1008.625
107.3  1005.375
107.2  1022.875
107.1  1024.125
107  1026.25
106.9  1027.375
106.8  1031.25
106.7  1015.5
106.6  995.75
106.5  970.875
106.4  937.5
106.3  897.5
106.2  862.375
106.1  787.5
106  771.25
105.9  757.25
105.8  733.25
105.7  680.125
105.6  666.5
105.5  624.125
105.4  625.875
105.3  596.5
105.2  566.75
105.1  548.75
105  541.875
104.9  538
104.8  527
104.7  528.875
104.6  521
104.5  512.75
104.4  500.125
104.3  494.625
104.2  505.75
104.1  479.125
104  477.875
103.9  493.625
103.8  502.5
103.7  491.875
103.6  494.625
103.5  496.75
103.4  476.125
103.3  488.875
103.2  481.5
103.1  472.875
103  470.25
102.9  468.625
102.8  466.75
102.7  462.125
102.6  465
102.5  451.125
102.4  456.625
102.3  453.25
102.2  455
102.1  437.625
102  452.75
101.9  436.75
101.8  442.25
101.7  430.25
101.6  428.75
101.5  425.625
101.4  427
101.3  414.625
101.2  425.625
101.1  433.5
101  430
100.9  422.875
100.8  426.25
100.7  416.625
100.6  422.5
100.5  411.375
100.4  408.75
100.3  418.5
100.2  424.875
100.1  411.25
100  411
99.9  432.375
99.8  420.375
99.7  425
99.6  429.375
99.5  423.75
99.4  409.5
99.3  425.125
99.2  429.875
99.1  440.75
99  451.5
98.9  453.875
98.8  453.375
98.7  468.5
98.6  479.75
98.5  489.625
98.4  510.875
98.3  520.625
98.2  563.5
98.1  579.75
98  630.25
97.9  668.25
97.8  722
97.7  757.5
97.6  803.25
97.5  883.25
97.4  944.75
97.3  1029.25
97.2  1100.875
97.1  1180.125
97  1240.875
96.9  1359.75
96.8  1411.5
96.7  1477.375
96.6  1493.25
96.5  1520.5
96.4  1557.625
96.3  1573
96.2  1529
96.1  1504.75
96  1455.5
95.9  1385.5
95.8  1318.875
95.7  1283.5
95.6  1240.125
95.5  1181.25
95.4  1126.875
95.3  1105.75
95.2  1104.625
95.1  1146.75
95  1170.5
94.9  1196.875
94.8  1266.5
94.7  1325.875
94.6  1424.125
94.5  1502
94.4  1641
94.3  1715.625
94.2  1807.875
94.1  1895.375
94  1914.375
93.9  1939.125
93.8  1944.75
93.7  2015.75
93.6  1902.25
93.5  1829.25
93.4  1780.875
93.3  1653.875
93.2  1544.5
93.1  1435.375
93  1282.75
92.9  1188.75
92.8  1066.125
92.7  982.375
92.6  854.5
92.5  782.5
92.4  728.875
92.3  666.5
92.2  602.75
92.1  569.75
92  547.125
91.9  522
91.8  507
91.7  480.375
91.6  477.875
91.5  459.75
91.4  448.625
91.3  445.875
91.2  440.75
91.1  429.375
91  423.75
90.9  413.25
90.8  417
90.7  402.125
90.6  407.125
90.5  414
90.4  392.375
90.3  396
90.2  401.25
90.1  390.25
90  394.75
89.9  396.5
89.8  391.375
89.7  370.75
89.6  377.125
89.5  381.5
89.4  377.125
89.3  384.75
89.2  368.625
89.1  376.75
89  366.75

# Region:            overview
# Acquisition Date:  04/07/22 16:48:07 UTC
# Analysis Method:   XPS
# Analyzer:          Phoibos 100 R6
# Analyzer Lens:     MediumArea:1.5kV
# Analyzer Slit:     1:0.2x20\B:open
# Scan Mode:         FixedAnalyzerTransmission
# Curves/Scan:       1
# Values/Curve:      1205
# Dwell Time:        0.2
# Excitation Energy: 1486.61
# Binding Energy:    1200
# Pass Energy:       50
# Bias Voltage:      90
# Detector Voltage:  2600
# Eff. Workfunction: 4.309
# Source:            X-Ray Dummy
# Comment:
#
# Cycle: 0
# Number of Scans: 1
#
# Cycle: 0, Curve: 0
# Acquisition Date: 04/07/22 16:48:07 UTC
#
# ColumnLabels: energy counts/s
#
1200  4905
1199  4560
1198  4435
1197  4425
1196  4470
1195  4655
1194  4425
1193  4370
1192  4485
1191  4355
1190  4360
1189  4805
1188  4425
1187  4300
1186  4420
1185  4505
1184  4555
1183  4675
1182  4535
1181  4280
1180  4530
1179  4430
1178  4265
1177  4090
1176  4540
1175  4265
1174  4335
1173  4105
1172  4275
1171  4100
1170  4150
1169  4415
1168  4855
1167  4780
1166  4185
1165  4505
1164  4615
1163  4280
1162  4185
1161  4485
1160  4055
1159  3980
1158  4250
1157  4440
1156  4300
1155  4155
1154  4535
1153  4200
1152  4210
1151  4330
1150  4190
1149  4280
1148  4270
1147  4315
1146  4235
1145  4095
1144  4630
1143  4655
1142  4745
1141  4945
1140  4955
1139  4655
1138  4910
1137  4470
1136  4250
1135  4185
1134  4085
1133  4030
1132  3890
1131  4180
1130  4030
1129  4045
1128  3920
1127  4345
1126  3920
1125  4065
1124  3995
1123  4370
1122  3995
1121  3820
1120  3795
1119  3735
1118  4140
1117  3930
1116  4025
1115  4150
1114  4200
1113  3980
1112  4155
1111  4175
1110  3905
1109  4230
1108  4145
1107  3990
1106  3930
1105  4050
1104  4045
1103  3825
1102  3790
1101  4045
1100  4160
1099  4075
1098  4215
1097  3825
1096  4115
1095  4065
1094  4025
1093  4390
1092  4040
1091  4150
1090  4110
1089  4100
1088  4150
1087  4115
1086  4385
1085  4245
1084  4205
1083  4095
1082  3990
1081  4115
1080  4110
1079  4075
1078  4390
1077  4630
1076  4295
1075  4460
1074  4045
1073  4320
1072  4270
1071  4280
1070  4580
1069  5015
1068  5585
1067  5720
1066  5580
1065  5205
1064  4925
1063  4570
1062  4260
1061  4235
1060  4025
1059  4055
1058  4040
1057  3815
1056  3850
1055  3815
1054  3630
1053  3700
1052  3625
1051  3435
1050  3565
1049  3565
1048  3725
1047  3320
1046  3590
1045  3410
1044  3390
1043  3460
1042  3275
1041  3405
1040  3620
1039  3750
1038  3405
1037  3740
1036  3715
1035  3410
1034  3655
1033  3605
1032  3745
1031  3785
1030  3685
1029  3610
1028  3460
1027  3430
1026  3545
1025  3380
1024  3865
1023  3785
1022  3475
1021  3445
1020  3530
1019  3555
1018  3210
1017  3385
1016  3475
1015  3570
1014  3690
1013  3675
1012  3550
1011  3555
1010  3715
1009  3475
1008  3435
1007  3590
1006  3490
1005  3520
1004  3285
1003  3510
1002  3305
1001  3395
1000  3430
999  3345
998  3570
997  3220
996  3475
995  3330
994  3375
993  3480
992  3605
991  3165
990  3155
989  3125
988  2990
987  3230
986  3020
985  2865
984  3060
983  3150
982  3315
981  3125
980  2965
979  2935
978  2715
977  2705
976  2915
975  2610
974  2590
973  2775
972  2615
971  2350
970  2550
969  2425
968  2400
967  2525
966  2370
965  2455
964  2400
963  2520
962  2610
961  2420
960  2505
959  2620
958  2600
957  2705
956  2785
955  2620
954  2580
953  2535
952  2435
951  2590
950  2530
949  2785
948  2645
947  2680
946  2760
945  2885
944  2815
943  2885
942  2715
941  3025
940  2770
939  3155
938  3015
937  2880
936  3125
935  3045
934  3180
933  3130
932  3100
931  3135
930  2950
929  3370
928  3235
927  3050
926  3230
925  3170
924  3455
923  3155
922  3405
921  3415
920  3365
919  3400
918  3205
917  3580
916  3375
915  3640
914  3730
913  3895
912  3985
911  4015
910  4440
909  4665
908  4790
907  4700
906  4715
905  4630
904  4765
903  4655
902  4195
901  4015
900  3645
899  3515
898  3180
897  3370
896  3500
895  3670
894  3660
893  3840
892  3505
891  3360
890  2915
889  2740
888  2480
887  2395
886  2290
885  2250
884  2335
883  2300
882  2510
881  2155
880  2045
879  2110
878  2055
877  2100
876  1935
875  2080
874  2135
873  2155
872  2245
871  2240
870  2040
869  2100
868  2035
867  2175
866  2000
865  2215
864  2200
863  2230
862  2305
861  2205
860  2420
859  2120
858  2325
857  2065
856  2360
855  2345
854  2375
853  2255
852  2365
851  2470
850  2590
849  2500
848  2435
847  2720
846  2635
845  2465
844  2520
843  2615
842  2475
841  2595
840  2610
839  2590
838  2710
837  2610
836  2940
835  2645
834  2855
833  2430
832  2685
831  2750
830  2990
829  2955
828  3085
827  3105
826  3125
825  3375
824  3340
823  3350
822  3235
821  3130
820  3290
819  3235
818  2970
817  3060
816  3010
815  2885
814  3260
813  3155
812  3325
811  3615
810  3640
809  3710
808  3285
807  3325
806  3075
805  3025
804  3035
803  3145
802  4070
801  6670
800  9810
799  8190
798  5230
797  3590
796  2915
795  2905
794  2870
793  2795
792  2605
791  2555
790  2740
789  2725
788  2865
787  3610
786  6340
785  11000
784  11385
783  6850
782  3290
781  2420
780  2160
779  2090
778  2030
777  1865
776  2230
775  2255
774  2540
773  2265
772  2230
771  1805
770  1675
769  1540
768  1640
767  1630
766  1785
765  1580
764  1710
763  1945
762  1560
761  1635
760  1625
759  1595
758  1495
757  1675
756  1410
755  1540
754  1840
753  1540
752  1605
751  1595
750  1685
749  1725
748  1690
747  1580
746  1535
745  1715
744  1760
743  1365
742  1685
741  1770
740  1715
739  1660
738  1475
737  1480
736  1695
735  1620
734  1720
733  1660
732  1745
731  1820
730  1835
729  1665
728  1545
727  1670
726  1620
725  1530
724  1665
723  1750
722  1690
721  1655
720  1580
719  1655
718  1645
717  1850
716  1760
715  1670
714  1760
713  1750
712  1745
711  1730
710  1790
709  1570
708  1645
707  1515
706  1670
705  1735
704  1505
703  1460
702  1625
701  1575
700  1510
699  1525
698  1690
697  1410
696  1740
695  1700
694  1410
693  1745
692  1440
691  1580
690  1725
689  1700
688  1605
687  1740
686  1545
685  1725
684  1685
683  1410
682  1645
681  1630
680  1670
679  1720
678  1720
677  1635
676  1600
675  1680
674  1570
673  1695
672  1500
671  1620
670  1745
669  1680
668  1630
667  1670
666  1825
665  1625
664  1715
663  1710
662  1635
661  1755
660  1930
659  1695
658  1655
657  1695
656  1655
655  1705
654  1585
653  1685
652  1615
651  1700
650  1525
649  1745
648  1705
647  1760
646  1660
645  1655
644  1595
643  1650
642  1615
641  1690
640  1755
639  1580
638  1855
637  1655
636  1680
635  1670
634  1715
633  1585
632  1785
631  1525
630  1645
629  1665
628  1695
627  1620
626  1770
625  1740
624  1545
623  1670
622  1760
621  1905
620  1610
619  1760
618  1840
617  1640
616  1725
615  1610
614  1620
613  1745
612  1755
611  1680
610  1705
609  1635
608  1825
607  1760
606  1730
605  1600
604  1730
603  1705
602  1815
601  1695
600  1625
599  1840
598  1725
597  1625
596  1765
595  1705
594  1655
593  1610
592  1815
591  1835
590  1750
589  1635
588  1710
587  1625
586  1625
585  1650
584  1550
583  1810
582  1725
581  1825
580  1700
579  1755
578  1665
577  1750
576  1695
575  1545
574  1570
573  1580
572  1715
571  1570
570  1625
569  1710
568  1550
567  1610
566  1640
565  1775
564  1645
563  1615
562  1820
561  1935
560  1920
559  1800
558  1825
557  1745
556  1645
555  1435
554  1525
553  1645
552  1520
551  1565
550  1320
549  1570
548  1190
547  1080
546  1375
545  1125
544  1025
543  910
542  1015
541  1190
540  1115
539  1315
538  2230
537  3800
536  3820
535  2020
534  1350
533  1095
532  965
531  1020
530  850
529  880
528  1085
527  1165
526  1140
525  1000
524  1005
523  840
522  845
521  970
520  985
519  910
518  920
517  975
516  870
515  875
514  835
513  870
512  885
511  800
510  885
509  855
508  740
507  820
506  880
505  825
504  870
503  935
502  945
501  1015
500  855
499  840
498  880
497  780
496  880
495  935
494  925
493  825
492  725
491  845
490  950
489  810
488  945
487  1025
486  775
485  845
484  855
483  915
482  775
481  820
480  875
479  935
478  890
477  850
476  885
475  755
474  985
473  940
472  1040
471  940
470  970
469  825
468  1095
467  890
466  905
465  835
464  865
463  865
462  840
461  825
460  875
459  860
458  930
457  805
456  850
455  1025
454  845
453  945
452  890
451  830
450  975
449  890
448  780
447  915
446  905
445  760
444  835
443  775
442  895
441  890
440  900
439  895
438  885
437  910
436  745
435  900
434  840
433  975
432  930
431  955
430  840
429  785
428  960
427  940
426  960
425  835
424  810
423  825
422  890
421  775
420  820
419  945
418  870
417  1035
416  1040
415  810
414  920
413  850
412  895
411  870
410  850
409  830
408  960
407  800
406  835
405  900
404  910
403  945
402  885
401  925
400  1065
399  850
398  915
397  820
396  870
395  865
394  890
393  1010
392  855
391  1040
390  985
389  895
388  985
387  820
386  885
385  960
384  790
383  795
382  895
381  925
380  995
379  875
378  1055
377  695
376  885
375  885
374  1025
373  925
372  840
371  915
370  815
369  935
368  1000
367  1000
366  995
365  955
364  905
363  850
362  860
361  1000
360  890
359  800
358  880
357  1000
356  1030
355  1015
354  960
353  1050
352  940
351  810
350  1060
349  940
348  900
347  970
346  1065
345  1005
344  995
343  1005
342  930
341  1035
340  970
339  910
338  920
337  930
336  950
335  890
334  1050
333  865
332  980
331  1040
330  855
329  975
328  1130
327  885
326  1055
325  980
324  1015
323  1245
322  920
321  1110
320  920
319  1040
318  1130
317  1105
316  920
315  1090
314  990
313  1025
312  1190
311  980
310  1160
309  1080
308  990
307  1100
306  1150
305  1110
304  1190
303  1155
302  1180
301  1055
300  1230
299  1150
298  1200
297  1175
296  1215
295  1210
294  1125
293  1195
292  1215
291  1390
290  1370
289  1815
288  1585
287  1270
286  1105
285  1025
284  1045
283  1155
282  1110
281  950
280  1105
279  1030
278  990
277  1090
276  1215
275  1340
274  1855
273  1850
272  1700
271  1345
270  1045
269  1050
268  900
267  1110
266  1025
265  970
264  1100
263  1180
262  1125
261  1040
260  1190
259  1135
258  1320
257  1310
256  1195
255  1070
254  1095
253  1050
252  1140
251  1145
250  1140
249  1060
248  1070
247  1040
246  1040
245  1115
244  1005
243  1150
242  1065
241  1070
240  1025
239  1015
238  1100
237  1055
236  1065
235  1045
234  1195
233  1135
232  1200
231  1075
230  1075
229  1125
228  1175
227  960
226  1290
225  1205
224  1190
223  1325
222  1135
221  1080
220  1285
219  1285
218  1360
217  1140
216  1265
215  1170
214  1205
213  1185
212  1260
211  1115
210  1205
209  1055
208  1155
207  1210
206  1105
205  1410
204  2205
203  2495
202  2535
201  1810
200  1155
199  1110
198  1200
197  1260
196  1155
195  1035
194  1305
193  1250
192  1185
191  1125
190  1150
189  980
188  950
187  1155
186  1050
185  1015
184  1395
183  1760
182  1640
181  1300
180  1035
179  1075
178  955
177  975
176  965
175  740
174  880
173  815
172  845
171  880
170  885
169  690
168  845
167  680
166  830
165  635
164  735
163  760
162  825
161  790
160  990
159  1275
158  1465
157  1150
156  930
155  810
154  910
153  690
152  735
151  740
150  800
149  830
148  765
147  830
146  765
145  785
144  780
143  735
142  770
141  740
140  890
139  710
138  710
137  735
136  790
135  745
134  840
133  790
132  740
131  840
130  855
129  845
128  810
127  720
126  730
125  825
124  765
123  920
122  810
121  800
120  815
119  810
118  715
117  865
116  695
115  755
114  750
113  755
112  615
111  855
110  725
109  905
108  1435
107  1425
106  1170
105  740
104  875
103  770
102  580
101  595
100  600
99  695
98  1220
97  1890
96  2140
95  2205
94  2755
93  1710
92  850
91  735
90  545
89  625
88  595
87  585
86  620
85  590
84  785
83  660
82  555
81  595
80  450
79  520
78  380
77  420
76  520
75  490
74  470
73  615
72  575
71  455
70  510
69  575
68  495
67  465
66  430
65  525
64  495
63  525
62  420
61  495
60  515
59  455
58  465
57  415
56  465
55  545
54  515
53  470
52  385
51  475
50  440
49  535
48  500
47  430
46  500
45  430
44  565
43  475
42  590
41  475
40  440
39  465
38  480
37  540
36  470
35  610
34  640
33  465
32  485
31  605
30  590
29  605
28  570
27  515
26  460
25  545
24  475
23  455
22  545
21  570
20  700
19  745
18  690
17  560
16  460
15  355
14  455
13  415
12  415
11  460
10  535
9  655
8  470
7  435
6  430
5  345
4  360
3  355
2  350
1  340
-2.2737368e-013  450
-1  365
-2  350
-3  395
-4  415

# Region:            N1s
# Acquisition Date:  04/08/22 08:07:26 UTC
# Analysis Method:   XPS
# Analyzer:          Phoibos 100 R6
# Analyzer Lens:     LargeArea:1.5kV
# Analyzer Slit:     1:0.2x20\B:open
# Scan Mode:         FixedAnalyzerTransmission
# Curves/Scan:       1
# Values/Curve:      121
# Dwell Time:        0.8
# Excitation Energy: 1486.61
# Binding Energy:    409
# Pass Energy:       30
# Bias Voltage:      90
# Detector Voltage:  2600
# Eff. Workfunction: 4.309
# Source:            X-Ray Dummy
# Comment:
#
# Cycle: 0
# Number of Scans: 97
#
# Cycle: 0, Curve: 0
# Acquisition Date: 04/08/22 08:07:26 UTC
#
# ColumnLabels: energy counts/s
#
409  686.95876
408.9  692.06186
408.8  686.55928
408.7  695.37371
408.6  689.1366
408.5  688.90464
408.4  695.56701
408.3  691.00515
408.2  694.67784
408.1  696.18557
408  685.51546
407.9  689.48454
407.8  695.01289
407.7  690.54124
407.6  694.44588
407.5  689.3299
407.4  694.04639
407.3  689.60052
407.2  692.52577
407.1  694.4201
407  695.39948
406.9  696.28866
406.8  695.64433
406.7  695.63144
406.6  694.75515
406.5  694.81959
406.4  692.47423
406.3  698.91753
406.2  694.87113
406.1  697.3067
406  698.19588
405.9  700.20619
405.8  696.14691
405.7  693.10567
405.6  700.54124
405.5  698.93041
405.4  705.54124
405.3  704.00773
405.2  707.96392
405.1  705.09021
405  709.18814
404.9  718.90464
404.8  710.46392
404.7  716.71392
404.6  725.02577
404.5  725.7732
404.4  725.05155
404.3  733.53093
404.2  731.62371
404.1  740.33505
404  746.30155
403.9  758.47938
403.8  750.18041
403.7  752.74485
403.6  752.38402
403.5  747.42268
403.4  752.35825
403.3  751.31443
403.2  767.68041
403.1  745.76031
403  767.56443
402.9  745.30928
402.8  749.6134
402.7  742.57732
402.6  740.29639
402.5  736.59794
402.4  730.5799
402.3  724.96134
402.2  727.16495
402.1  721.94588
402  713.82732
401.9  718.98196
401.8  718.24742
401.7  708.31186
401.6  707.6933
401.5  710.50258
401.4  706.81701
401.3  705.92784
401.2  700.32216
401.1  700.4768
401  693.15722
400.9  695.83763
400.8  707.28093
400.7  684.45876
400.6  691.17268
400.5  689.6134
400.4  694.69072
400.3  687.43557
400.2  687.68041
400.1  686.45619
400  685.39948
399.9  684.71649
399.8  687.53866
399.7  680.42526
399.6  687.06186
399.5  686.99742
399.4  688.87887
399.3  679.49742
399.2  682.16495
399.1  683.06701
399  690.95361
398.9  684.70361
398.8  683.71134
398.7  678.13144
398.6  684.45876
398.5  684.48454
398.4  679.45876
398.3  680.39948
398.2  680.45103
398.1  687.19072
398  683.64691
397.9  689.78093
397.8  689.25258
397.7  682.1134
397.6  689.17526
397.5  685.18041
397.4  682.73196
397.3  686.84278
397.2  679.00773
397.1  683.96907
397  685.83763

# Region:            Si2p
# Acquisition Date:  04/08/22 03:43:49 UTC
# Analysis Method:   XPS
# Analyzer:          Phoibos 100 R6
# Analyzer Lens:     LargeArea:1.5kV
# Analyzer Slit:     1:0.2x20\B:open
# Scan Mode:         FixedAnalyzerTransmission
# Curves/Scan:       1
# Values/Curve:      111
# Dwell Time:        0.8
# Excitation Energy: 1486.61
# Binding Energy:    112
# Pass Energy:       30
# Bias Voltage:      90
# Detector Voltage:  2600
# Eff. Workfunction: 4.309
# Source:            X-Ray Dummy
# Comment:
#
# Cycle: 0
# Number of Scans: 50
#
# Cycle: 0, Curve: 0
# Acquisition Date: 04/08/22 03:43:49 UTC
#
# ColumnLabels: energy counts/s
#
112  459.7
111.9  454.675
111.8  457.7
111.7  460.8
111.6  453.95
111.5  461.675
111.4  456.375
111.3  462.8
111.2  460.85
111.1  461.725
111  460.45
110.9  468.125
110.8  463.375
110.7  460.25
110.6  469.1
110.5  470.575
110.4  462.075
110.3  470.15
110.2  464.925
110.1  471.325
110  470
109.9  471.875
109.8  476.75
109.7  477.1
109.6  479.125
109.5  480.775
109.4  486.025
109.3  485.5
109.2  500.375
109.1  497.975
109  507.875
108.9  525.075
108.8  530.425
108.7  549.625
108.6  562.9
108.5  581.125
108.4  603.825
108.3  624.25
108.2  647.425
108.1  680.85
108  710.45
107.9  743.525
107.8  780.725
107.7  812.8
107.6  867.85
107.5  874.125
107.4  911.075
107.3  950.425
107.2  973.95
107.1  1002.375
107  1015.875
106.9  1024.45
106.8  1023.475
106.7  1019.45
106.6  1023.025
106.5  999.925
106.4  979.2
106.3  950.1
106.2  900.225
106.1  875.825
106  837.075
105.9  791.275
105.8  756
105.7  737.475
105.6  699.675
105.5  659.35
105.4  641.25
105.3  608.975
105.2  592.175
105.1  569.075
105  554.1
104.9  546.825
104.8  531.975
104.7  519.25
104.6  509.025
104.5  503.45
104.4  492.35
104.3  490.875
104.2  489.45
104.1  489.85
104  488.875
103.9  475.675
103.8  485.075
103.7  472.35
103.6  478.075
103.5  473.825
103.4  473.825
103.3  470.875
103.2  470.225
103.1  467.275
103  470.175
102.9  462.975
102.8  463.575
102.7  457.075
102.6  453.95
102.5  451.35
102.4  456.2
102.3  441.625
102.2  445.6
102.1  434.6
102  431.325
101.9  426.175
101.8  421.225
101.7  420.925
101.6  435.1
101.5  419.225
101.4  415.8
101.3  412.975
101.2  412.15
101.1  406.725
101  412.125

# Region:            C1s (2)
# Acquisition Date:  04/07/22 21:32:39 UTC
# Analysis Method:   XPS
# Analyzer:          Phoibos 100 R6
# Analyzer Lens:     LargeArea:1.5kV
# Analyzer Slit:     1:0.2x20\B:open
# Scan Mode:         FixedAnalyzerTransmission
# Curves/Scan:       1
# Values/Curve:      401
# Dwell Time:        0.8
# Excitation Energy: 1486.61
# Binding Energy:    310
# Pass Energy:       30
# Bias Voltage:      90
# Detector Voltage:  2600
# Eff. Workfunction: 4.309
# Source:            X-Ray Dummy
# Comment:
#
# Cycle: 0
# Number of Scans: 10
#
# Cycle: 0, Curve: 0
# Acquisition Date: 04/07/22 21:32:39 UTC
#
# ColumnLabels: energy counts/s
#
310  810.125
309.9  794
309.8  818.5
309.7  798.25
309.6  792.75
309.5  798
309.4  810.125
309.3  827.75
309.2  800
309.1  780.375
309  783.125
308.9  786.125
308.8  787
308.7  801.875
308.6  793.75
308.5  804
308.4  823.125
308.3  796
308.2  782
308.1  803.5
308  786.875
307.9  811.75
307.8  792.5
307.7  801.25
307.6  768
307.5  784.75
307.4  795.875
307.3  798.375
307.2  798.625
307.1  797.625
307  800.75
306.9  800.25
306.8  800.375
306.7  802.125
306.6  798.875
306.5  811
306.4  775.125
306.3  811.375
306.2  813
306.1  810.25
306  800.125
305.9  789.75
305.8  795.25
305.7  803.625
305.6  807.25
305.5  802
305.4  799.625
305.3  789
305.2  800.875
305.1  797.5
305  788.25
304.9  795.5
304.8  785.875
304.7  797.125
304.6  793.625
304.5  794.75
304.4  798.75
304.3  785.125
304.2  795.875
304.1  805.125
304  806.625
303.9  802.125
303.8  773.875
303.7  809.25
303.6  808.625
303.5  801.5
303.4  792.25
303.3  796.25
303.2  794.125
303.1  794.25
303  797.5
302.9  792.5
302.8  783
302.7  798.25
302.6  802.25
302.5  812
302.4  793.375
302.3  804.875
302.2  808.75
302.1  798.375
302  801.5
301.9  791.125
301.8  805.875
301.7  815.125
301.6  809
301.5  798.125
301.4  801.625
301.3  803.75
301.2  795
301.1  803.75
301  805.25
300.9  810.125
300.8  813.875
300.7  792.25
300.6  817.5
300.5  803.125
300.4  787.25
300.3  804.375
300.2  782.125
300.1  808.375
300  800.625
299.9  805.125
299.8  805.625
299.7  812.75
299.6  784.875
299.5  808.625
299.4  821.5
299.3  815.125
299.2  826.625
299.1  806.75
299  819.875
298.9  809.25
298.8  796.25
298.7  805.875
298.6  794.75
298.5  804
298.4  820.625
298.3  806
298.2  795.375
298.1  810.375
298  817.875
297.9  813.5
297.8  805.125
297.7  809.125
297.6  823.875
297.5  809
297.4  819.375
297.3  800.375
297.2  795.5
297.1  817.375
297  806.375
296.9  807.125
296.8  810.125
296.7  821.75
296.6  810.25
296.5  803.375
296.4  813.125
296.3  809.375
296.2  816
296.1  806.375
296  836.125
295.9  803.375
295.8  801
295.7  800.75
295.6  820.75
295.5  813
295.4  803.125
295.3  807.125
295.2  800.625
295.1  816.5
295  811.875
294.9  814.25
294.8  816.5
294.7  809.375
294.6  825.75
294.5  804.25
294.4  812.75
294.3  833.375
294.2  812.75
294.1  825.875
294  823.375
293.9  817.875
293.8  822.625
293.7  823.875
293.6  812
293.5  801.75
293.4  838.875
293.3  821.125
293.2  831.5
293.1  844
293  833.25
292.9  863.25
292.8  837.375
292.7  851.25
292.6  855.625
292.5  866.625
292.4  870.125
292.3  948
292.2  856.875
292.1  863
292  888.75
291.9  875.5
291.8  871.625
291.7  893.875
291.6  887.875
291.5  909.75
291.4  919.125
291.3  921.25
291.2  923.875
291.1  938.125
291  923.5
290.9  940.875
290.8  980.75
290.7  995.5
290.6  984.875
290.5  1005.625
290.4  1028.625
290.3  1064.75
290.2  1056.875
290.1  1062.625
290  1093
289.9  1104.125
289.8  1128.375
289.7  1130
289.6  1142.5
289.5  1200.25
289.4  1187.875
289.3  1194.875
289.2  1235.375
289.1  1353.5
289  1268.625
288.9  1296.875
288.8  1306.625
288.7  1323.375
288.6  1332
288.5  1295.125
288.4  1319.25
288.3  1315.5
288.2  1326
288.1  1306.25
288  1268.75
287.9  1258.875
287.8  1226.25
287.7  1184.375
287.6  1146.5
287.5  1115.625
287.4  1092
287.3  1050
287.2  1012.5
287.1  1013.5
287  974
286.9  936.125
286.8  924.5
286.7  878
286.6  887.75
286.5  872.75
286.4  903.5
286.3  866.625
286.2  836.875
286.1  846.75
286  813.875
285.9  826.375
285.8  812
285.7  822.25
285.6  806.75
285.5  801.125
285.4  809.375
285.3  787.625
285.2  790.25
285.1  800.125
285  789.875
284.9  778
284.8  767.25
284.7  774.375
284.6  784.75
284.5  792
284.4  755
284.3  789.25
284.2  777.375
284.1  769
284  770.125
283.9  777.5
283.8  777.375
283.7  780.75
283.6  775.375
283.5  777.5
283.4  770.75
283.3  770.875
283.2  781.125
283.1  785.25
283  763.875
282.9  771.375
282.8  772.75
282.7  775.875
282.6  761
282.5  776.75
282.4  790.375
282.3  758.875
282.2  763.875
282.1  777.625
282  769.625
281.9  769
281.8  759.25
281.7  771.25
281.6  766.375
281.5  757.75
281.4  763.75
281.3  752.5
281.2  775.875
281.1  769.625
281  762.25
280.9  764.5
280.8  749.125
280.7  772.5
280.6  776.75
280.5  780.25
280.4  746
280.3  775.375
280.2  753
280.1  772.25
280  779.5
279.9  775.5
279.8  774.5
279.7  796.125
279.6  795.875
279.5  769.25
279.4  790
279.3  799.875
279.2  785
279.1  785.75
279  806.875
278.9  797
278.8  798.125
278.7  799
278.6  805
278.5  806.5
278.4  795
278.3  810.125
278.2  795.625
278.1  797
278  802.375
277.9  800.75
277.8  792.75
277.7  790.375
277.6  802
277.5  809.625
277.4  804.125
277.3  801.375
277.2  801.375
277.1  809.25
277  803.25
276.9  807.125
276.8  812.875
276.7  820
276.6  814.625
276.5  822.625
276.4  834.75
276.3  839.25
276.2  837.375
276.1  836.5
276  850.75
275.9  862.25
275.8  880.5
275.7  882.125
275.6  888.375
275.5  901.5
275.4  900.25
275.3  916.5
275.2  899
275.1  932.5
275  957.75
274.9  986.875
274.8  1008.625
274.7  1029.375
274.6  1045.25
274.5  1061.625
274.4  1109.375
274.3  1116.375
274.2  1140.625
274.1  1155
274  1207.75
273.9  1238.25
273.8  1244
273.7  1306.75
273.6  1316.625
273.5  1344.375
273.4  1379
273.3  1375.5
273.2  1404.125
273.1  1396.625
273  1417.125
272.9  1426
272.8  1411.125
272.7  1392
272.6  1388.625
272.5  1376.25
272.4  1350.125
272.3  1297.625
272.2  1289.875
272.1  1297.125
272  1232.625
271.9  1203.875
271.8  1179.875
271.7  1130
271.6  1091.125
271.5  1117.75
271.4  1066.5
271.3  1047.25
271.2  994.375
271.1  986
271  965.875
270.9  923.375
270.8  946.5
270.7  922.375
270.6  896.25
270.5  908.375
270.4  869.75
270.3  870.875
270.2  858.125
270.1  860.625
270  837.5

# Region:            O1s (2)
# Acquisition Date:  04/07/22 21:38:04 UTC
# Analysis Method:   XPS
# Analyzer:          Phoibos 100 R6
# Analyzer Lens:     LargeArea:1.5kV
# Analyzer Slit:     1:0.2x20\B:open
# Scan Mode:         FixedAnalyzerTransmission
# Curves/Scan:       1
# Values/Curve:      401
# Dwell Time:        0.8
# Excitation Energy: 1486.61
# Binding Energy:    558
# Pass Energy:       30
# Bias Voltage:      90
# Detector Voltage:  2600
# Eff. Workfunction: 4.309
# Source:            X-Ray Dummy
# Comment:
#
# Cycle: 0
# Number of Scans: 10
#
# Cycle: 0, Curve: 0
# Acquisition Date: 04/07/22 21:38:04 UTC
#
# ColumnLabels: energy counts/s
#
558  1617.375
557.9  1593.5
557.8  1615.25
557.7  1587.875
557.6  1592.5
557.5  1580.375
557.4  1591.625
557.3  1527.25
557.2  1544.875
557.1  1550.5
557  1539.375
556.9  1534.625
556.8  1509.25
556.7  1515.875
556.6  1500.75
556.5  1491.125
556.4  1501
556.3  1481.125
556.2  1495.375
556.1  1480.125
556  1468
555.9  1467.25
555.8  1469
555.7  1444.75
555.6  1435.5
555.5  1438.125
555.4  1453.75
555.3  1453
555.2  1459.875
555.1  1419.75
555  1418.125
554.9  1429.25
554.8  1411.5
554.7  1411.375
554.6  1408.875
554.5  1384.5
554.4  1395.125
554.3  1395.625
554.2  1383.625
554.1  1380
554  1368.625
553.9  1380.625
553.8  1374.375
553.7  1389.75
553.6  1389.5
553.5  1353.25
553.4  1358.125
553.3  1377.125
553.2  1343
553.1  1344.875
553  1376
552.9  1359.5
552.8  1341.5
552.7  1354
552.6  1351.375
552.5  1345.125
552.4  1346.5
552.3  1348.125
552.2  1368.125
552.1  1373.375
552  1364
551.9  1364.75
551.8  1346.625
551.7  1358.125
551.6  1357.25
551.5  1330
551.4  1345
551.3  1353.25
551.2  1357.75
551.1  1328.625
551  1330
550.9  1316.125
550.8  1328.875
550.7  1292.625
550.6  1316.625
550.5  1321.25
550.4  1284.375
550.3  1298.875
550.2  1297.625
550.1  1309.5
550  1287
549.9  1275.875
549.8  1283.75
549.7  1278.375
549.6  1271.75
549.5  1277.875
549.4  1261.625
549.3  1286.625
549.2  1257.625
549.1  1275.125
549  1247.375
548.9  1257.75
548.8  1264.125
548.7  1244.75
548.6  1233.25
548.5  1251.25
548.4  1237.5
548.3  1251.125
548.2  1234.75
548.1  1229.875
548  1233.25
547.9  1194.5
547.8  1222.625
547.7  1217
547.6  1220.125
547.5  1193
547.4  1181.625
547.3  1191.625
547.2  1177.875
547.1  1192.875
547  1192.5
546.9  1168.25
546.8  1159.25
546.7  1146.125
546.6  1148.375
546.5  1130.5
546.4  1141.875
546.3  1128.125
546.2  1124.5
546.1  1134.875
546  1110.25
545.9  1107
545.8  1084.125
545.7  1105.125
545.6  1074.75
545.5  1090.375
545.4  1087.125
545.3  1073.875
545.2  1048.5
545.1  1056.375
545  1059.375
544.9  1041.625
544.8  1032.75
544.7  1050.625
544.6  1015.125
544.5  1017.75
544.4  1007.875
544.3  1017.75
544.2  995.625
544.1  997.125
544  965.375
543.9  1003.125
543.8  970.875
543.7  987.5
543.6  975.125
543.5  960.125
543.4  981.625
543.3  965.625
543.2  967.625
543.1  953.125
543  959.375
542.9  949.25
542.8  942.5
542.7  959.75
542.6  950
542.5  938.375
542.4  961.5
542.3  964.125
542.2  963.875
542.1  951.75
542  944.625
541.9  963.375
541.8  973.625
541.7  933.25
541.6  984.5
541.5  962.375
541.4  972.375
541.3  977.5
541.2  990.125
541.1  982.5
541  962.25
540.9  971.25
540.8  970.875
540.7  1001.5
540.6  980.75
540.5  1002.125
540.4  1023
540.3  997.5
540.2  1020.25
540.1  1016.125
540  1024
539.9  1040.625
539.8  1031
539.7  1046.5
539.6  1037.875
539.5  1052.125
539.4  1063.875
539.3  1087.125
539.2  1074
539.1  1102
539  1096.625
538.9  1148
538.8  1155
538.7  1161
538.6  1236.5
538.5  1239.5
538.4  1327.375
538.3  1357.25
538.2  1416
538.1  1484
538  1589.875
537.9  1696.375
537.8  1812.625
537.7  1943
537.6  2088.75
537.5  2262.5
537.4  2419.5
537.3  2597.25
537.2  2812.25
537.1  2972.5
537  3175.875
536.9  3361.125
536.8  3540.625
536.7  3625.5
536.6  3758.875
536.5  3874.375
536.4  3905.25
536.3  3961.875
536.2  3882.5
536.1  3867.625
536  3810
535.9  3681
535.8  3494.5
535.7  3316.375
535.6  3106.25
535.5  2898.25
535.4  2713.5
535.3  2501.5
535.2  2314.5
535.1  2161
535  1965.5
534.9  1822.125
534.8  1700.25
534.7  1594.5
534.6  1502.5
534.5  1469.375
534.4  1337.625
534.3  1293.375
534.2  1239.5
534.1  1175.125
534  1166.125
533.9  1141.25
533.8  1112.125
533.7  1085.625
533.6  1066.25
533.5  1034.75
533.4  1017.75
533.3  1008.125
533.2  1003
533.1  1001.5
533  969.375
532.9  942.125
532.8  959.625
532.7  942.375
532.6  934.875
532.5  922
532.4  932.5
532.3  914.75
532.2  928.25
532.1  922.5
532  911.5
531.9  930.875
531.8  913.5
531.7  915
531.6  910.875
531.5  898.875
531.4  913
531.3  924.625
531.2  910.375
531.1  910.75
531  919
530.9  900.125
530.8  906.75
530.7  878.375
530.6  890.25
530.5  908
530.4  902.625
530.3  914.125
530.2  894.375
530.1  895.5
530  882.25
529.9  879.625
529.8  889.5
529.7  870.25
529.6  887.125
529.5  898.75
529.4  865.5
529.3  865.25
529.2  867.625
529.1  860
529  869.375
528.9  856.875
528.8  858.375
528.7  870.625
528.6  876
528.5  886.5
528.4  899.125
528.3  884.75
528.2  889.625
528.1  909.5
528  912.125
527.9  929
527.8  937.375
527.7  939.125
527.6  926.875
527.5  972.75
527.4  978.875
527.3  979.625
527.2  1085.875
527.1  1008.375
527  1016.875
526.9  1050.75
526.8  1043.375
526.7  1039.625
526.6  1052
526.5  1049.625
526.4  1053.5
526.3  1055.625
526.2  1040
526.1  1036.125
526  1023.875
525.9  1012.75
525.8  1017.125
525.7  1005.875
525.6  1000
525.5  998.125
525.4  984.875
525.3  987.125
525.2  1020.125
525.1  968.25
525  965.875
524.9  964.375
524.8  974.5
524.7  964.375
524.6  957.625
524.5  945.125
524.4  926
524.3  916.125
524.2  933
524.1  925.375
524  899.125
523.9  938.75
523.8  915
523.7  907.125
523.6  901.75
523.5  907
523.4  858.375
523.3  861.5
523.2  877.875
523.1  867.875
523  855.625
522.9  848.375
522.8  855.75
522.7  858.75
522.6  836.625
522.5  832.625
522.4  826.625
522.3  820.75
522.2  821
522.1  842.5
522  837.375
521.9  823.125
521.8  833.875
521.7  804.875
521.6  823.875
521.5  799.125
521.4  805.625
521.3  816.25
521.2  815.5
521.1  815.5
521  813
520.9  806.25
520.8  810.5
520.7  810.75
520.6  805.375
520.5  805.875
520.4  815.625
520.3  801.625
520.2  821
520.1  830.5
520  810.75
519.9  806.75
519.8  806.5
519.7  799.125
519.6  807.75
519.5  808.875
519.4  806.375
519.3  790.625
519.2  793.375
519.1  809.625
519  807.375
518.9  814.375
518.8  809.5
518.7  808.375
518.6  801.5
518.5  801.625
518.4  799.75
518.3  811.625
518.2  815.5
518.1  803.25
518  801.25

# Region:            N1s (3)
# Acquisition Date:  04/07/22 21:42:17 UTC
# Analysis Method:   XPS
# Analyzer:          Phoibos 100 R6
# Analyzer Lens:     LargeArea:1.5kV
# Analyzer Slit:     1:0.2x20\B:open
# Scan Mode:         FixedAnalyzerTransmission
# Curves/Scan:       1
# Values/Curve:      311
# Dwell Time:        0.8
# Excitation Energy: 1486.61
# Binding Energy:    419
# Pass Energy:       30
# Bias Voltage:      90
# Detector Voltage:  2600
# Eff. Workfunction: 4.309
# Source:            X-Ray Dummy
# Comment:
#
# Cycle: 0
# Number of Scans: 10
#
# Cycle: 0, Curve: 0
# Acquisition Date: 04/07/22 21:42:17 UTC
#
# ColumnLabels: energy counts/s
#
419  709
418.9  725.25
418.8  719.25
418.7  722.75
418.6  701.75
418.5  720.375
418.4  731.125
418.3  715.375
418.2  732.25
418.1  734.25
418  721.875
417.9  730.375
417.8  728.25
417.7  701.75
417.6  742.75
417.5  738.125
417.4  736.75
417.3  701.875
417.2  741.125
417.1  727.125
417  717.375
416.9  732.25
416.8  714.75
416.7  729.25
416.6  722.125
416.5  720.875
416.4  736.5
416.3  736.875
416.2  722
416.1  728.75
416  741.875
415.9  711.375
415.8  723.625
415.7  720.125
415.6  716.875
415.5  723.75
415.4  715.625
415.3  706.375
415.2  727.625
415.1  722.875
415  710.875
414.9  721
414.8  731
414.7  733.125
414.6  702.875
414.5  718.25
414.4  716.5
414.3  726.375
414.2  718.75
414.1  732.5
414  711.125
413.9  725.75
413.8  703.625
413.7  706.875
413.6  724.75
413.5  727.375
413.4  714.5
413.3  730.5
413.2  722.375
413.1  707.25
413  713.25
412.9  730.125
412.8  722
412.7  694.625
412.6  713.375
412.5  716
412.4  724.5
412.3  691.875
412.2  725.875
412.1  714.75
412  725.375
411.9  719.75
411.8  717.75
411.7  720.75
411.6  713.125
411.5  707
411.4  708.875
411.3  721.875
411.2  701.5
411.1  718.25
411  726.375
410.9  703.25
410.8  716
410.7  714
410.6  707.625
410.5  700.75
410.4  716.25
410.3  714.375
410.2  714.875
410.1  719.5
410  711.375
409.9  715.375
409.8  711.5
409.7  713.5
409.6  731.875
409.5  702.125
409.4  704.625
409.3  711.625
409.2  721.625
409.1  718
409  726.5
408.9  700.25
408.8  705
408.7  716.125
408.6  700.75
408.5  726
408.4  711.625
408.3  705.125
408.2  709.75
408.1  714.375
408  724.375
407.9  705.125
407.8  708
407.7  728.125
407.6  708.625
407.5  729.375
407.4  715
407.3  725.625
407.2  724.75
407.1  734.625
407  704.75
406.9  718.375
406.8  732.75
406.7  721
406.6  709.875
406.5  715.875
406.4  711.25
406.3  715.5
406.2  719.125
406.1  731.875
406  733.5
405.9  723
405.8  724.125
405.7  735.25
405.6  721.75
405.5  724.125
405.4  746.625
405.3  733.375
405.2  726
405.1  742.25
405  741.5
404.9  740.75
404.8  757.625
404.7  742.5
404.6  734.625
404.5  765.5
404.4  773.625
404.3  753.875
404.2  772.375
404.1  774.625
404  771
403.9  782.5
403.8  814.375
403.7  770.75
403.6  777.375
403.5  774.25
403.4  783.875
403.3  761.875
403.2  757.25
403.1  780
403  765.25
402.9  764.375
402.8  779.5
402.7  747.75
402.6  771.5
402.5  760.5
402.4  740.75
402.3  741.25
402.2  737
402.1  741.25
402  735.75
401.9  751.5
401.8  741.375
401.7  711.875
401.6  720.375
401.5  733.75
401.4  716.625
401.3  734
401.2  723
401.1  721.75
401  707.625
400.9  701.75
400.8  717.5
400.7  725.375
400.6  724.5
400.5  714.5
400.4  712.875
400.3  708.625
400.2  721.25
400.1  723
400  699.25
399.9  721.25
399.8  710.875
399.7  723.625
399.6  711.5
399.5  723.875
399.4  705.625
399.3  700.5
399.2  699.25
399.1  717.375
399  719.375
398.9  715.5
398.8  713.75
398.7  698.5
398.6  713.875
398.5  709.75
398.4  711.625
398.3  710.125
398.2  698.125
398.1  706.625
398  699
397.9  700.625
397.8  719.75
397.7  710.125
397.6  722
397.5  722.75
397.4  731.75
397.3  700
397.2  689.625
397.1  706.5
397  709.375
396.9  706.75
396.8  705.75
396.7  724
396.6  705.625
396.5  710.25
396.4  698
396.3  693.25
396.2  719
396.1  724.125
396  707.875
395.9  699
395.8  707.375
395.7  715.5
395.6  703.5
395.5  714.25
395.4  696
395.3  693.625
395.2  716
395.1  725.875
395  713.25
394.9  708.875
394.8  724.125
394.7  708.625
394.6  721.375
394.5  713.375
394.4  704.875
394.3  702.375
394.2  700.875
394.1  725.625
394  706.125
393.9  704.875
393.8  736.75
393.7  713
393.6  709.25
393.5  721.375
393.4  711.125
393.3  725.5
393.2  715.5
393.1  712.75
393  710.5
392.9  692.75
392.8  731.5
392.7  716.25
392.6  714.375
392.5  703
392.4  722.125
392.3  701.5
392.2  704
392.1  717.125
392  702.625
391.9  683.75
391.8  708.75
391.7  703.875
391.6  716.375
391.5  713.125
391.4  718
391.3  725.375
391.2  692.875
391.1  712.75
391  687.5
390.9  705.875
390.8  721.875
390.7  709.375
390.6  698.875
390.5  704.5
390.4  704
390.3  714.125
390.2  698.25
390.1  709.625
390  698.25
389.9  695.25
389.8  711.25
389.7  691.25
389.6  705.875
389.5  715.625
389.4  696.5
389.3  686.625
389.2  701
389.1  713.875
389  706.375
388.9  711.25
388.8  722.5
388.7  707.5
388.6  716.5
388.5  712.75
388.4  715.125
388.3  700.5
388.2  712.875
388.1  712.625
388  705.125
