# Created by:        SpecsLab Prodigy, Version 4.60.2-r85849 
#
# XY-Serializer Export Settings:
#   Comment Prefix:           #
#   Output meta data:         yes
#   Energy Axis:              Binding Energy
#   Count Rate:               Counts per Second
#   Separate Scan Data:       no
#   Separate Channel Data:    no
#   External Channel Data:    yes
#   Transmission Function:    no
#   ErrorBar:                 no
#   Operation Results:        yes
#   Time Zone Format:         UTC
#
# Group:             20210507_Au111_clean
#
# Region:            C 1s
# Acquisition Date:  11/04/21 10:15:58 UTC
# Analysis Method:   XPS
# Analyzer:          Phoibos 100 R6
# Analyzer Lens:     LargeArea:1.5kV
# Analyzer Slit:     1:0.2x20\B:open
# Scan Mode:         FixedAnalyzerTransmission
# Curves/Scan:       1
# Values/Curve:      151
# Dwell Time:        0.8
# Excitation Energy: 1486.61
# Binding Energy:    295
# Pass Energy:       30
# Bias Voltage:      90
# Detector Voltage:  2600
# Eff. Workfunction: 4.309
# Source:            X-Ray Dummy
# Comment:           
#
# Cycle: 0
# Number of Scans: 2
#
# Cycle: 0, Curve: 0
# Acquisition Date: 11/04/21 10:15:58 UTC
#
# ColumnLabels: energy counts/s
#
295  3901.875
294.9  3885.625
294.8  3885
294.7  3950.625
294.6  3993.125
294.5  3880.625
294.4  3956.25
294.3  3918.125
294.2  3988.75
294.1  3884.375
294  3923.125
293.9  3841.875
293.8  3922.5
293.7  3895.625
293.6  3891.25
293.5  3896.875
293.4  3886.25
293.3  3901.875
293.2  3897.5
293.1  3965
293  3905
292.9  3858.125
292.8  3898.75
292.7  3938.125
292.6  3912.5
292.5  3894.375
292.4  3862.5
292.3  3880
292.2  3880.625
292.1  3881.875
292  3872.5
291.9  3878.125
291.8  4004.375
291.7  3833.75
291.6  3970.625
291.5  3895.625
291.4  4000.625
291.3  3948.75
291.2  3935.625
291.1  3813.125
291  3950
290.9  3931.25
290.8  3842.5
290.7  3837.5
290.6  3880
290.5  3957.5
290.4  3917.5
290.3  3858.125
290.2  3861.25
290.1  3833.75
290  3799.375
289.9  3786.875
289.8  3933.75
289.7  3874.375
289.6  3966.875
289.5  3978.75
289.4  3895.625
289.3  3810
289.2  3920.625
289.1  3861.875
289  3846.875
288.9  3871.25
288.8  3956.875
288.7  4025.625
288.6  3925
288.5  3956.875
288.4  3981.875
288.3  4023.125
288.2  3851.875
288.1  3869.375
288  3919.375
287.9  3892.5
287.8  3920.625
287.7  3977.5
287.6  3880
287.5  3998.75
287.4  3961.25
287.3  3897.5
287.2  4044.375
287.1  4001.25
287  3955
286.9  3998.125
286.8  3933.75
286.7  3978.75
286.6  3998.125
286.5  4031.875
286.4  3902.5
286.3  4011.875
286.2  4030.625
286.1  3978.75
286  4025
285.9  4016.875
285.8  4076.875
285.7  3998.125
285.6  4080
285.5  4150.625
285.4  4141.25
285.3  4176.25
285.2  4032.5
285.1  4186.25
285  4095
284.9  4121.875
284.8  4143.75
284.7  4195
284.6  4296.25
284.5  4217.5
284.4  4157.5
284.3  4101.25
284.2  4121.875
284.1  4190.625
284  4166.25
283.9  4094.375
283.8  4069.375
283.7  4085.625
283.6  4128.125
283.5  4056.875
283.4  4146.25
283.3  4065
283.2  3994.375
283.1  3946.875
283  4084.375
282.9  4080
282.8  3971.25
282.7  3873.75
282.6  3958.75
282.5  3923.125
282.4  3969.375
282.3  3952.5
282.2  3946.875
282.1  4071.25
282  3908.125
281.9  3905
281.8  3938.75
281.7  3907.5
281.6  3867.5
281.5  4020
281.4  3985.625
281.3  3902.5
281.2  3832.5
281.1  3923.125
281  3881.25
280.9  3933.75
280.8  3904.375
280.7  3931.25
280.6  3829.375
280.5  3906.25
280.4  3889.375
280.3  3925.625
280.2  3914.375
280.1  3887.5
280  3889.375

# Region:            N 1s
# Acquisition Date:  11/04/21 10:17:21 UTC
# Analysis Method:   XPS
# Analyzer:          Phoibos 100 R6
# Analyzer Lens:     LargeArea:1.5kV
# Analyzer Slit:     1:0.2x20\B:open
# Scan Mode:         FixedAnalyzerTransmission
# Curves/Scan:       1
# Values/Curve:      101
# Dwell Time:        0.8
# Excitation Energy: 1486.61
# Binding Energy:    405
# Pass Energy:       30
# Bias Voltage:      90
# Detector Voltage:  2600
# Eff. Workfunction: 4.309
# Source:            X-Ray Dummy
# Comment:           
#
# Cycle: 0
# Number of Scans: 2
#
# Cycle: 0, Curve: 0
# Acquisition Date: 11/04/21 10:17:21 UTC
#
# ColumnLabels: energy counts/s
#
405  6903.75
404.9  6836.875
404.8  6796.875
404.7  6906.25
404.6  6731.875
404.5  6855.625
404.4  6957.5
404.3  6808.125
404.2  6780
404.1  6884.375
404  6882.5
403.9  6852.5
403.8  6891.25
403.7  6776.875
403.6  6920.625
403.5  6800.625
403.4  6868.75
403.3  6847.5
403.2  6900.625
403.1  6927.5
403  6852.5
402.9  6943.125
402.8  6789.375
402.7  6810
402.6  6887.5
402.5  6851.875
402.4  6867.5
402.3  6914.375
402.2  6876.875
402.1  6968.125
402  6942.5
401.9  6908.125
401.8  6910
401.7  6846.875
401.6  6814.375
401.5  7011.875
401.4  6971.875
401.3  6920.625
401.2  6908.125
401.1  6834.375
401  6935
400.9  6986.875
400.8  6898.75
400.7  7026.875
400.6  6862.5
400.5  6938.125
400.4  6975
400.3  6945.625
400.2  6909.375
400.1  6920.625
400  6848.75
399.9  6948.125
399.8  6886.875
399.7  7061.25
399.6  6803.75
399.5  6898.75
399.4  6825.625
399.3  7001.25
399.2  6915
399.1  7001.875
399  6961.25
398.9  6909.375
398.8  6964.375
398.7  7098.75
398.6  6921.875
398.5  6864.375
398.4  7017.5
398.3  6855.625
398.2  6848.125
398.1  6966.875
398  6930
397.9  6890
397.8  6885.625
397.7  6932.5
397.6  6901.875
397.5  7056.875
397.4  6955
397.3  7001.875
397.2  6861.875
397.1  6921.25
397  6926.25
396.9  6915
396.8  7039.375
396.7  6930
396.6  7015
396.5  6970.625
396.4  6975
396.3  6924.375
396.2  6818.125
396.1  7016.875
396  6923.125
395.9  6991.875
395.8  6920
395.7  6841.875
395.6  6998.75
395.5  6933.125
395.4  6953.75
395.3  6901.875
395.2  7011.25
395.1  6898.75
395  6813.75

# Region:            overview
# Acquisition Date:  11/04/21 10:05:46 UTC
# Analysis Method:   XPS
# Analyzer:          Phoibos 100 R6
# Analyzer Lens:     MediumArea:1.5kV
# Analyzer Slit:     1:0.2x20\B:open
# Scan Mode:         FixedAnalyzerTransmission
# Curves/Scan:       1
# Values/Curve:      1205
# Dwell Time:        0.2
# Excitation Energy: 1486.61
# Binding Energy:    1200
# Pass Energy:       50
# Bias Voltage:      90
# Detector Voltage:  2600
# Eff. Workfunction: 4.309
# Source:            X-Ray Dummy
# Comment:           
#
# Cycle: 0
# Number of Scans: 1
#
# Cycle: 0, Curve: 0
# Acquisition Date: 11/04/21 10:05:46 UTC
#
# ColumnLabels: energy counts/s
#
1200  12730
1199  12750
1198  12540
1197  12830
1196  12515
1195  12560
1194  12275
1193  12660
1192  12150
1191  11980
1190  12530
1189  12035
1188  12140
1187  12190
1186  11760
1185  11970
1184  11485
1183  11450
1182  12195
1181  11645
1180  11720
1179  11815
1178  11295
1177  11590
1176  11470
1175  11815
1174  11995
1173  11470
1172  11105
1171  11145
1170  11235
1169  11725
1168  11460
1167  10865
1166  11390
1165  11220
1164  11795
1163  10990
1162  11135
1161  10835
1160  10665
1159  10540
1158  10850
1157  11135
1156  10825
1155  10885
1154  10825
1153  11030
1152  11290
1151  10280
1150  10635
1149  10370
1148  10545
1147  10400
1146  10510
1145  10345
1144  10575
1143  10220
1142  10225
1141  10415
1140  10105
1139  10570
1138  10415
1137  10115
1136  10140
1135  10150
1134  10425
1133  10360
1132  9670
1131  9675
1130  9800
1129  9875
1128  10125
1127  9585
1126  9570
1125  9965
1124  9775
1123  9660
1122  9535
1121  9470
1120  9805
1119  9360
1118  9480
1117  9440
1116  9500
1115  9365
1114  9510
1113  9230
1112  9500
1111  9110
1110  9145
1109  9400
1108  8925
1107  9045
1106  9200
1105  9465
1104  9450
1103  9220
1102  8580
1101  8830
1100  8840
1099  9165
1098  8845
1097  8960
1096  8875
1095  9150
1094  8870
1093  8910
1092  9035
1091  8935
1090  8990
1089  9130
1088  9220
1087  8665
1086  8745
1085  8925
1084  9020
1083  8880
1082  8765
1081  8465
1080  8585
1079  8820
1078  8505
1077  8670
1076  8500
1075  8465
1074  8385
1073  8620
1072  8310
1071  8265
1070  8345
1069  8400
1068  8650
1067  8000
1066  8410
1065  8455
1064  8635
1063  8085
1062  8305
1061  8380
1060  8535
1059  8295
1058  8345
1057  8175
1056  8050
1055  7935
1054  8050
1053  7925
1052  8325
1051  8280
1050  8175
1049  7800
1048  7660
1047  7600
1046  7895
1045  8200
1044  8240
1043  7695
1042  7940
1041  8115
1040  8000
1039  7635
1038  7855
1037  8115
1036  8020
1035  7885
1034  7765
1033  7625
1032  7880
1031  7370
1030  7710
1029  7735
1028  7795
1027  7650
1026  7545
1025  7560
1024  7720
1023  7600
1022  7520
1021  7645
1020  7335
1019  7625
1018  7225
1017  7520
1016  7520
1015  7605
1014  7325
1013  7500
1012  7650
1011  7505
1010  7255
1009  7385
1008  7760
1007  7305
1006  7575
1005  7390
1004  7300
1003  7505
1002  6950
1001  7665
1000  7515
999  7340
998  7110
997  7010
996  7450
995  7080
994  7210
993  6950
992  7055
991  7250
990  7065
989  7250
988  7460
987  7120
986  7120
985  7170
984  7230
983  7425
982  7335
981  6980
980  7090
979  7355
978  6955
977  7190
976  7210
975  7340
974  7015
973  7105
972  6995
971  6800
970  7320
969  7505
968  7030
967  7565
966  7165
965  7180
964  6850
963  7095
962  6930
961  6985
960  7200
959  7040
958  7305
957  6735
956  7160
955  7255
954  6750
953  6985
952  7130
951  7150
950  6910
949  6925
948  7350
947  6695
946  7130
945  6885
944  7015
943  7270
942  7240
941  6965
940  6590
939  7295
938  7405
937  6735
936  6825
935  7030
934  7010
933  6705
932  7520
931  6695
930  7135
929  6855
928  6825
927  7085
926  7230
925  6870
924  6835
923  7080
922  6925
921  6650
920  6640
919  6675
918  6740
917  6915
916  6995
915  6735
914  7155
913  6955
912  7120
911  6600
910  6925
909  7175
908  6870
907  6620
906  6650
905  6880
904  6845
903  6590
902  6975
901  6460
900  6960
899  6635
898  6545
897  6730
896  6730
895  6900
894  6590
893  6400
892  6825
891  6695
890  6830
889  6655
888  6690
887  6710
886  6780
885  6545
884  6970
883  6875
882  6675
881  6570
880  6520
879  6580
878  6860
877  6775
876  6860
875  6305
874  6720
873  6920
872  7030
871  6550
870  6885
869  6910
868  6680
867  6645
866  6885
865  7060
864  6830
863  6730
862  6455
861  6865
860  6455
859  6625
858  6705
857  6535
856  6740
855  6510
854  6465
853  6955
852  6340
851  6680
850  6755
849  6760
848  7035
847  6575
846  6825
845  6730
844  6855
843  7105
842  6280
841  6440
840  6995
839  6590
838  6650
837  6715
836  6665
835  7170
834  6605
833  6850
832  7000
831  6760
830  6615
829  6920
828  6770
827  6855
826  6470
825  6535
824  6670
823  6880
822  7040
821  6770
820  6695
819  6955
818  6745
817  6910
816  6850
815  6800
814  6490
813  6955
812  6870
811  6870
810  6755
809  6505
808  6625
807  7110
806  6775
805  7080
804  6655
803  6690
802  6880
801  7135
800  6985
799  7050
798  7260
797  7000
796  7015
795  7205
794  7140
793  6965
792  6835
791  7055
790  7300
789  7000
788  7170
787  6940
786  6725
785  6875
784  7105
783  6815
782  6645
781  7000
780  7325
779  6890
778  6750
777  7030
776  6940
775  7175
774  7425
773  7410
772  6960
771  7320
770  7190
769  7180
768  7225
767  7545
766  7375
765  7045
764  8075
763  7570
762  7695
761  7225
760  7150
759  7120
758  7025
757  7210
756  7255
755  6895
754  6995
753  7430
752  7115
751  7075
750  7210
749  6975
748  6885
747  6960
746  6740
745  6780
744  6830
743  7090
742  7000
741  7100
740  7075
739  6910
738  7085
737  7210
736  6845
735  7105
734  6815
733  6920
732  7020
731  7345
730  6735
729  6610
728  6790
727  6805
726  6990
725  6965
724  6530
723  6580
722  6840
721  7090
720  6845
719  6845
718  6730
717  6745
716  6935
715  6895
714  6825
713  7230
712  7065
711  6995
710  7425
709  7030
708  7040
707  6815
706  7300
705  7205
704  7195
703  6635
702  6625
701  7205
700  7015
699  7300
698  7100
697  7195
696  7315
695  7500
694  7365
693  7155
692  7500
691  7090
690  6920
689  7265
688  7130
687  7025
686  7090
685  6810
684  6855
683  7110
682  7135
681  7045
680  6965
679  7045
678  7155
677  7165
676  7355
675  7140
674  7305
673  7370
672  7595
671  7220
670  7370
669  7065
668  7530
667  7145
666  7425
665  7390
664  7400
663  7520
662  7255
661  7345
660  7290
659  7480
658  7415
657  7370
656  7855
655  7465
654  7195
653  7575
652  7370
651  7385
650  7595
649  7555
648  7370
647  8040
646  7720
645  8045
644  8195
643  7920
642  8260
641  8280
640  7800
639  7915
638  8020
637  7810
636  7445
635  7670
634  7685
633  7580
632  7360
631  7315
630  7635
629  7470
628  7320
627  7865
626  7550
625  7210
624  7380
623  7415
622  7360
621  7515
620  7650
619  7505
618  7710
617  7455
616  7455
615  7190
614  7505
613  7425
612  7615
611  7485
610  7215
609  7625
608  7400
607  7575
606  7710
605  7780
604  7575
603  7320
602  7470
601  7330
600  7720
599  7695
598  7460
597  7620
596  7750
595  7465
594  7435
593  8025
592  8000
591  7415
590  7550
589  8175
588  7850
587  8075
586  7755
585  7765
584  7930
583  7600
582  7940
581  8135
580  8450
579  7855
578  7835
577  8235
576  7980
575  7810
574  8105
573  8035
572  7920
571  7965
570  8370
569  7815
568  8350
567  7990
566  8100
565  8045
564  7875
563  7860
562  7865
561  8110
560  8275
559  8070
558  8395
557  8390
556  8220
555  8460
554  9015
553  9010
552  8780
551  9065
550  9625
549  10115
548  11050
547  11410
546  11750
545  10565
544  9980
543  9340
542  8820
541  8575
540  8360
539  7835
538  8030
537  8605
536  7940
535  7570
534  7680
533  7850
532  7705
531  7735
530  7395
529  7450
528  7635
527  7290
526  7070
525  7235
524  7235
523  7115
522  7045
521  7470
520  7200
519  7410
518  7270
517  7295
516  7595
515  7305
514  7450
513  7285
512  7390
511  7305
510  7030
509  7060
508  7440
507  7720
506  7460
505  7445
504  7385
503  7345
502  7490
501  7430
500  7335
499  7295
498  7310
497  7345
496  7565
495  7615
494  7305
493  7615
492  7760
491  7270
490  7145
489  7455
488  7530
487  7585
486  7715
485  7485
484  7860
483  7375
482  7880
481  7495
480  7370
479  7480
478  7705
477  7810
476  7695
475  7860
474  7445
473  7600
472  7665
471  7700
470  7875
469  7755
468  7560
467  7930
466  7875
465  8210
464  8135
463  7655
462  7940
461  8270
460  8070
459  7630
458  7790
457  7770
456  8120
455  7460
454  7835
453  7980
452  7780
451  7970
450  7780
449  7890
448  8160
447  7890
446  7930
445  7855
444  8060
443  8675
442  8175
441  8115
440  8335
439  8095
438  7825
437  8100
436  8320
435  8285
434  8170
433  8250
432  8185
431  8135
430  8100
429  8305
428  8285
427  8355
426  8240
425  8315
424  8610
423  8620
422  8655
421  8500
420  8515
419  8420
418  8370
417  8425
416  9040
415  8320
414  8530
413  8835
412  8675
411  8405
410  8755
409  8655
408  8785
407  8675
406  8930
405  8835
404  8755
403  8855
402  8980
401  9050
400  8925
399  9120
398  8755
397  9575
396  9065
395  9080
394  9575
393  9065
392  8895
391  9280
390  9510
389  9370
388  9420
387  9445
386  9255
385  9650
384  9495
383  9395
382  9695
381  9345
380  9480
379  9315
378  9460
377  9685
376  9840
375  9705
374  9865
373  9775
372  9715
371  9775
370  9985
369  9710
368  10075
367  10090
366  10030
365  9795
364  10115
363  10680
362  10470
361  10695
360  10745
359  10865
358  11500
357  12215
356  13240
355  14475
354  15620
353  16000
352  15180
351  13170
350  12055
349  10880
348  10605
347  10015
346  10060
345  9995
344  10200
343  10255
342  10310
341  10530
340  10980
339  11705
338  13155
337  15165
336  18770
335  18235
334  16035
333  13320
332  10960
331  9275
330  8215
329  7675
328  7170
327  6995
326  7335
325  7170
324  7300
323  7025
322  6510
321  6255
320  5960
319  6155
318  5625
317  6045
316  5865
315  5765
314  5380
313  5520
312  5485
311  5235
310  5710
309  5295
308  5165
307  5730
306  5725
305  5310
304  5285
303  5470
302  5475
301  5185
300  5485
299  5060
298  5275
297  5410
296  5420
295  5390
294  5460
293  5380
292  5310
291  5290
290  5145
289  5375
288  5405
287  5780
286  5760
285  5860
284  5785
283  5760
282  5700
281  5500
280  5590
279  5405
278  5085
277  5560
276  5150
275  5350
274  5290
273  5395
272  5380
271  5665
270  5575
269  5240
268  5255
267  5310
266  5615
265  5405
264  5405
263  5155
262  5595
261  5505
260  5395
259  5245
258  5450
257  5665
256  5475
255  5295
254  5420
253  5390
252  5340
251  5335
250  4960
249  5175
248  5405
247  5450
246  5485
245  5415
244  5510
243  5590
242  5440
241  5870
240  5460
239  5455
238  5210
237  5400
236  5445
235  5530
234  5845
233  5355
232  5405
231  5540
230  5725
229  5605
228  5500
227  5375
226  5480
225  5485
224  5105
223  5465
222  5495
221  5665
220  5440
219  5830
218  5650
217  5655
216  6030
215  5340
214  5460
213  6080
212  5305
211  5750
210  5660
209  5485
208  5915
207  5735
206  5830
205  5990
204  5645
203  5555
202  5620
201  5240
200  5925
199  5655
198  5815
197  5850
196  5735
195  5780
194  5910
193  5910
192  5850
191  6120
190  5845
189  6020
188  6015
187  5770
186  5765
185  5920
184  5970
183  5875
182  6095
181  5855
180  6030
179  5935
178  5845
177  6015
176  6020
175  5910
174  5755
173  6260
172  6000
171  5965
170  6095
169  6375
168  6340
167  6005
166  5990
165  6305
164  5960
163  6280
162  6000
161  5735
160  5910
159  6135
158  6490
157  6285
156  5935
155  6545
154  6080
153  6130
152  6280
151  6450
150  6675
149  6385
148  6390
147  6400
146  6435
145  6175
144  6925
143  6650
142  6310
141  6430
140  6605
139  6900
138  6355
137  6460
136  6570
135  6380
134  6520
133  6285
132  6915
131  6815
130  6685
129  6760
128  7280
127  7030
126  6745
125  6965
124  6830
123  7050
122  6915
121  7360
120  7170
119  7570
118  7335
117  7240
116  7265
115  7350
114  7365
113  7275
112  7660
111  7095
110  7240
109  7805
108  7150
107  7225
106  7080
105  7085
104  7315
103  7030
102  6990
101  7220
100  7530
99  7700
98  6995
97  6960
96  6930
95  7120
94  8015
93  7440
92  7725
91  8035
90  9570
89  17370
88  27410
87  20670
86  13435
85  24380
84  30650
83  16370
82  6340
81  4890
80  4440
79  5430
78  5435
77  5185
76  5420
75  5395
74  5590
73  5175
72  4285
71  3595
70  3080
69  3320
68  3205
67  3070
66  3045
65  3140
64  3070
63  3320
62  3210
61  3330
60  3480
59  3815
58  4120
57  3470
56  3415
55  3280
54  3245
53  2865
52  3020
51  2820
50  2870
49  2485
48  2970
47  2765
46  2700
45  2495
44  2585
43  2595
42  2790
41  2595
40  2665
39  2675
38  2640
37  2420
36  2520
35  2350
34  2700
33  2760
32  2665
31  2305
30  2420
29  2370
28  2365
27  2555
26  2520
25  2480
24  2685
23  2695
22  2575
21  2825
20  2725
19  2710
18  2755
17  2825
16  2745
15  2745
14  2620
13  2670
12  2615
11  2710
10  2585
9  2915
8  3665
7  4250
6  4545
5  4565
4  4490
3  4225
2  3425
1  2465
-2.2737368e-013  2235
-1  2060
-2  2125
-3  2290
-4  2125

# Region:            Ba 3d
# Acquisition Date:  11/04/21 10:18:27 UTC
# Analysis Method:   XPS
# Analyzer:          Phoibos 100 R6
# Analyzer Lens:     LargeArea:1.5kV
# Analyzer Slit:     1:0.2x20\B:open
# Scan Mode:         FixedAnalyzerTransmission
# Curves/Scan:       1
# Values/Curve:      81
# Dwell Time:        0.8
# Excitation Energy: 1486.61
# Binding Energy:    784
# Pass Energy:       30
# Bias Voltage:      90
# Detector Voltage:  2600
# Eff. Workfunction: 4.309
# Source:            X-Ray Dummy
# Comment:           
#
# Cycle: 0
# Number of Scans: 2
#
# Cycle: 0, Curve: 0
# Acquisition Date: 11/04/21 10:18:27 UTC
#
# ColumnLabels: energy counts/s
#
784  8154.375
783.9  8348.75
783.8  8341.25
783.7  8441.25
783.6  8335
783.5  8311.875
783.4  8377.5
783.3  8496.25
783.2  8243.75
783.1  8303.75
783  8335.625
782.9  8301.875
782.8  8306.875
782.7  8455.625
782.6  8400.625
782.5  8496.875
782.4  8331.875
782.3  8429.375
782.2  8448.75
782.1  8256.25
782  8320
781.9  8358.125
781.8  8477.5
781.7  8393.75
781.6  8449.375
781.5  8245.625
781.4  8268.125
781.3  8274.375
781.2  8313.125
781.1  8376.25
781  8392.5
780.9  8419.375
780.8  8313.125
780.7  8401.875
780.6  8479.375
780.5  8231.25
780.4  8264.375
780.3  8302.5
780.2  8311.875
780.1  8325.625
780  8315.625
779.9  8310
779.8  8388.125
779.7  8441.25
779.6  8361.25
779.5  8426.25
779.4  8441.25
779.3  8496.25
779.2  8195
779.1  8360
779  8305.625
778.9  8261.25
778.8  8346.25
778.7  8129.375
778.6  8306.25
778.5  8208.75
778.4  8285.625
778.3  8341.25
778.2  8223.75
778.1  8445
778  8301.25
777.9  8391.25
777.8  8328.75
777.7  8196.25
777.6  8250
777.5  8295.625
777.4  8469.375
777.3  8365.625
777.2  8276.25
777.1  8351.25
777  8271.875
776.9  8141.25
776.8  8187.5
776.7  8373.125
776.6  8175.625
776.5  8344.375
776.4  8374.375
776.3  8296.25
776.2  8191.875
776.1  8214.375
776  8241.25

# Region:            O 1s
# Acquisition Date:  11/04/21 10:23:12 UTC
# Analysis Method:   XPS
# Analyzer:          Phoibos 100 R6
# Analyzer Lens:     LargeArea:1.5kV
# Analyzer Slit:     1:0.2x20\B:open
# Scan Mode:         FixedAnalyzerTransmission
# Curves/Scan:       1
# Values/Curve:      351
# Dwell Time:        0.8
# Excitation Energy: 1486.61
# Binding Energy:    560
# Pass Energy:       30
# Bias Voltage:      90
# Detector Voltage:  2600
# Eff. Workfunction: 4.309
# Source:            X-Ray Dummy
# Comment:           
#
# Cycle: 0
# Number of Scans: 2
#
# Cycle: 0, Curve: 0
# Acquisition Date: 11/04/21 10:23:12 UTC
#
# ColumnLabels: energy counts/s
#
560  7345.625
559.9  7338.125
559.8  7411.875
559.7  7350
559.6  7450.625
559.5  7467.5
559.4  7320.625
559.3  7310
559.2  7258.75
559.1  7457.5
559  7386.25
558.9  7516.875
558.8  7476.875
558.7  7351.875
558.6  7330
558.5  7287.5
558.4  7315.625
558.3  7295.625
558.2  7415.625
558.1  7300
558  7358.125
557.9  7356.875
557.8  7458.125
557.7  7431.25
557.6  7338.75
557.5  7356.25
557.4  7303.75
557.3  7275
557.2  7366.25
557.1  7398.75
557  7410.625
556.9  7411.25
556.8  7360
556.7  7449.375
556.6  7351.25
556.5  7521.25
556.4  7495.625
556.3  7344.375
556.2  7473.75
556.1  7458.75
556  7494.375
555.9  7489.375
555.8  7418.75
555.7  7579.375
555.6  7535
555.5  7410.625
555.4  7355.625
555.3  7504.375
555.2  7432.5
555.1  7531.25
555  7478.125
554.9  7465
554.8  7556.25
554.7  7450
554.6  7562.5
554.5  7518.75
554.4  7491.25
554.3  7540.625
554.2  7514.375
554.1  7487.5
554  7523.75
553.9  7663.75
553.8  7510.625
553.7  7604.375
553.6  7576.25
553.5  7591.875
553.4  7633.125
553.3  7702.5
553.2  7807.5
553.1  7797.5
553  7769.375
552.9  7719.375
552.8  7665.625
552.7  7611.875
552.6  7763.75
552.5  7768.125
552.4  7754.375
552.3  7828.125
552.2  7849.375
552.1  7868.75
552  7700
551.9  7985.625
551.8  7861.875
551.7  7922.5
551.6  7918.75
551.5  7975
551.4  7934.375
551.3  8014.375
551.2  8044.375
551.1  8237.5
551  8268.75
550.9  8274.375
550.8  8213.125
550.7  8135.625
550.6  8183.75
550.5  8306.25
550.4  8306.875
550.3  8208.75
550.2  8443.75
550.1  8461.875
550  8447.5
549.9  8568.125
549.8  8517.5
549.7  8667.5
549.6  8823.125
549.5  8689.375
549.4  8845
549.3  8868.75
549.2  8878.75
549.1  8965
549  9012.5
548.9  9210.625
548.8  9185.625
548.7  9281.875
548.6  9140.625
548.5  9376.25
548.4  9559.375
548.3  9535
548.2  9631.25
548.1  9597.5
548  9711.875
547.9  9882.5
547.8  9888.125
547.7  9922.5
547.6  9911.875
547.5  9995.625
547.4  9924.375
547.3  10240
547.2  10212.5
547.1  10164.375
547  10376.25
546.9  10281.875
546.8  10327.5
546.7  10223.75
546.6  10386.875
546.5  10348.125
546.4  10193.75
546.3  10255.625
546.2  10233.125
546.1  10089.375
546  9894.375
545.9  10078.125
545.8  10011.875
545.7  9983.75
545.6  9910.625
545.5  9895
545.4  9656.875
545.3  9689.375
545.2  9643.75
545.1  9550.625
545  9526.875
544.9  9200
544.8  9264.375
544.7  9326.875
544.6  9057.5
544.5  8958.125
544.4  8925
544.3  8856.25
544.2  8837.5
544.1  8641.25
544  8809.375
543.9  8656.25
543.8  8465
543.7  8489.375
543.6  8447.5
543.5  8437.5
543.4  8254.375
543.3  8230.625
543.2  8030.625
543.1  8067.5
543  8063.125
542.9  7959.375
542.8  7886.875
542.7  7848.125
542.6  7915
542.5  7782.5
542.4  7833.75
542.3  7823.75
542.2  7798.75
542.1  7638.125
542  7713.125
541.9  7658.125
541.8  7515.625
541.7  7445
541.6  7473.75
541.5  7461.25
541.4  7294.375
541.3  7514.375
541.2  7385
541.1  7380
541  7293.125
540.9  7250
540.8  7293.125
540.7  7317.5
540.6  7146.875
540.5  7228.75
540.4  7211.25
540.3  7190.625
540.2  7131.25
540.1  7106.25
540  6956.875
539.9  7135.625
539.8  6978.75
539.7  7113.125
539.6  6986.25
539.5  6966.875
539.4  7110
539.3  7088.125
539.2  7001.25
539.1  7020
539  7041.875
538.9  7046.25
538.8  6998.75
538.7  6970
538.6  6914.375
538.5  6934.375
538.4  7051.25
538.3  6822.5
538.2  6882.5
538.1  7001.25
538  7060
537.9  6923.75
537.8  7033.125
537.7  7014.375
537.6  6883.75
537.5  6972.5
537.4  6856.25
537.3  6856.25
537.2  6937.5
537.1  6930
537  6891.25
536.9  6864.375
536.8  6933.125
536.7  6869.375
536.6  6870
536.5  6887.5
536.4  6916.25
536.3  6883.75
536.2  6737.5
536.1  6811.875
536  6911.25
535.9  6952.5
535.8  6899.375
535.7  6896.25
535.6  6737.5
535.5  6922.5
535.4  6919.375
535.3  6864.375
535.2  6858.75
535.1  6885.625
535  6935
534.9  6880.625
534.8  6913.125
534.7  6881.875
534.6  6860.625
534.5  6900.625
534.4  6846.25
534.3  6810
534.2  6840.625
534.1  6760.625
534  6848.75
533.9  6807.5
533.8  6703.125
533.7  6940
533.6  6828.75
533.5  6861.875
533.4  6892.5
533.3  6822.5
533.2  6746.875
533.1  6827.5
533  6850
532.9  6730
532.8  6781.25
532.7  6781.25
532.6  6766.875
532.5  6697.5
532.4  6810
532.3  6631.875
532.2  6678.75
532.1  6572.5
532  6612.5
531.9  6582.5
531.8  6428.125
531.7  6568.75
531.6  6492.5
531.5  6437.5
531.4  6586.875
531.3  6491.875
531.2  6343.75
531.1  6576.25
531  6465.625
530.9  6521.875
530.8  6403.125
530.7  6414.375
530.6  6433.125
530.5  6567.5
530.4  6410
530.3  6490
530.2  6381.875
530.1  6405.625
530  6315
529.9  6501.25
529.8  6267.5
529.7  6500
529.6  6331.875
529.5  6326.25
529.4  6298.125
529.3  6532.5
529.2  6311.25
529.1  6387.5
529  6383.75
528.9  6275
528.8  6318.125
528.7  6292.5
528.6  6310.625
528.5  6207.5
528.4  6314.375
528.3  6380.625
528.2  6272.5
528.1  6275
528  6274.375
527.9  6280
527.8  6212.5
527.7  6365.625
527.6  6304.375
527.5  6360.625
527.4  6333.75
527.3  6238.75
527.2  6283.125
527.1  6420.625
527  6309.375
526.9  6378.125
526.8  6218.75
526.7  6218.75
526.6  6371.25
526.5  6275
526.4  6238.125
526.3  6413.75
526.2  6309.375
526.1  6275.625
526  6278.75
525.9  6212.5
525.8  6311.25
525.7  6361.25
525.6  6366.875
525.5  6295
525.4  6357.5
525.3  6177.5
525.2  6315
525.1  6281.25
525  6140

# Region:            Au 4f
# Acquisition Date:  11/04/21 10:13:55 UTC
# Analysis Method:   XPS
# Analyzer:          Phoibos 100 R6
# Analyzer Lens:     LargeArea:1.5kV
# Analyzer Slit:     1:0.2x20\B:open
# Scan Mode:         FixedAnalyzerTransmission
# Curves/Scan:       1
# Values/Curve:      151
# Dwell Time:        0.8
# Excitation Energy: 1486.61
# Binding Energy:    95
# Pass Energy:       30
# Bias Voltage:      90
# Detector Voltage:  2600
# Eff. Workfunction: 4.309
# Source:            X-Ray Dummy
# Comment:           
#
# Cycle: 0
# Number of Scans: 1
#
# Cycle: 0, Curve: 0
# Acquisition Date: 11/04/21 10:13:55 UTC
#
# ColumnLabels: energy counts/s
#
95  4641.25
94.9  4582.5
94.8  4723.75
94.7  4610
94.6  4755
94.5  4735
94.4  4640
94.3  4630
94.2  4641.25
94.1  4831.25
94  4718.75
93.9  4838.75
93.8  4746.25
93.7  4718.75
93.6  4768.75
93.5  4712.5
93.4  4846.25
93.3  4577.5
93.2  4842.5
93.1  4603.75
93  4711.25
92.9  4605
92.8  4711.25
92.7  4631.25
92.6  4701.25
92.5  4903.75
92.4  4721.25
92.3  4823.75
92.2  4837.5
92.1  4755
92  4823.75
91.9  4992.5
91.8  4863.75
91.7  4960
91.6  5006.25
91.5  4998.75
91.4  5098.75
91.3  5195
91.2  5281.25
91.1  5270
91  5283.75
90.9  5327.5
90.8  5476.25
90.7  5377.5
90.6  5400
90.5  5501.25
90.4  5638.75
90.3  5521.25
90.2  5725
90.1  5872.5
90  6283.75
89.9  6145
89.8  6381.25
89.7  6815
89.6  7006.25
89.5  7240
89.4  7997.5
89.3  8511.25
89.2  9153.75
89.1  9795
89  10777.5
88.9  11693.75
88.8  12567.5
88.7  13836.25
88.6  14896.25
88.5  15900
88.4  17035
88.3  18177.5
88.2  18920
88.1  19832.5
88  20042.5
87.9  20128.75
87.8  20075
87.7  19552.5
87.6  18873.75
87.5  18061.25
87.4  16741.25
87.3  15588.75
87.2  14765
87.1  13010
87  11741.25
86.9  10530
86.8  9778.75
86.7  9087.5
86.6  8381.25
86.5  7902.5
86.4  7571.25
86.3  7378.75
86.2  7265
86.1  7068.75
86  7297.5
85.9  7663.75
85.8  8061.25
85.7  8651.25
85.6  9327.5
85.5  9997.5
85.4  11032.5
85.3  12017.5
85.2  12991.25
85.1  14205
85  15741.25
84.9  17346.25
84.8  18733.75
84.7  20017.5
84.6  21425
84.5  22317.5
84.4  22941.25
84.3  23575
84.2  23518.75
84.1  23308.75
84  22545
83.9  21078.75
83.8  19973.75
83.7  18358.75
83.6  16470
83.5  14875
83.4  12886.25
83.3  11748.75
83.2  10046.25
83.1  8518.75
83  7753.75
82.9  6993.75
82.8  6077.5
82.7  5323.75
82.6  4955
82.5  4681.25
82.4  4421.25
82.3  4167.5
82.2  3806.25
82.1  3850
82  3566.25
81.9  3545
81.8  3390
81.7  3347.5
81.6  3285
81.5  3098.75
81.4  3208.75
81.3  3057.5
81.2  3147.5
81.1  3045
81  2992.5
80.9  2948.75
80.8  2967.5
80.7  3006.25
80.6  2933.75
80.5  2822.5
80.4  2837.5
80.3  2786.25
80.2  2826.25
80.1  2902.5
80  2871.25

