# Created by:        SpecsLab Prodigy, Version 4.60.2-r85849 
#
# XY-Serializer Export Settings:
#   Comment Prefix:           #
#   Output meta data:         yes
#   Energy Axis:              Binding Energy
#   Count Rate:               Counts per Second
#   Separate Scan Data:       no
#   Separate Channel Data:    no
#   External Channel Data:    yes
#   Transmission Function:    no
#   ErrorBar:                 no
#   Operation Results:        yes
#   Time Zone Format:         UTC
#
# Group:             Spectrum Group
#
# Region:            Ba3d
# Acquisition Date:  12/22/21 15:30:15 UTC
# Analysis Method:   XPS
# Analyzer:          Phoibos 100 R6
# Analyzer Lens:     LargeArea:1.5kV
# Analyzer Slit:     1:0.2x20\B:open
# Scan Mode:         FixedAnalyzerTransmission
# Curves/Scan:       1
# Values/Curve:      111
# Dwell Time:        0.8
# Excitation Energy: 1486.61
# Binding Energy:    786
# Pass Energy:       30
# Bias Voltage:      90
# Detector Voltage:  2600
# Eff. Workfunction: 4.309
# Source:            X-Ray Dummy
# Comment:           
#
# Cycle: 0
# Number of Scans: 2
#
# Cycle: 0, Curve: 0
# Acquisition Date: 12/22/21 15:30:15 UTC
#
# ColumnLabels: energy counts/s
#
786  2508.75
785.9  2575
785.8  2628.125
785.7  2551.25
785.6  2678.75
785.5  2728.125
785.4  2635.625
785.3  2706.875
785.2  2810
785.1  2787.5
785  2906.25
784.9  2960
784.8  3066.25
784.7  3201.25
784.6  3225.625
784.5  3372.5
784.4  3475.625
784.3  3571.875
784.2  3847.5
784.1  3957.5
784  4139.375
783.9  4370.625
783.8  4480.625
783.7  4703.75
783.6  4791.875
783.5  4943.75
783.4  5074.375
783.3  5160
783.2  5289.375
783.1  5280.625
783  5135.625
782.9  5162.5
782.8  5005
782.7  5011.875
782.6  4716.875
782.5  4696.25
782.4  4436.25
782.3  4271.25
782.2  4135
782.1  3864.375
782  3789.375
781.9  3510
781.8  3411.875
781.7  3237.5
781.6  3094.375
781.5  2998.75
781.4  2881.25
781.3  2807.5
781.2  2773.75
781.1  2708.75
781  2652.5
780.9  2594.375
780.8  2565
780.7  2553.125
780.6  2433.75
780.5  2456.25
780.4  2430.625
780.3  2425.625
780.2  2321.875
780.1  2397.5
780  2410
779.9  2318.125
779.8  2371.25
779.7  2335.625
779.6  2293.75
779.5  2296.875
779.4  2290.625
779.3  2292.5
779.2  2358.125
779.1  2350.625
779  2273.75
778.9  2260
778.8  2309.375
778.7  2277.5
778.6  2250.625
778.5  2258.75
778.4  2315.625
778.3  2276.875
778.2  2288.75
778.1  2203.125
778  2243.75
777.9  2259.375
777.8  2268.125
777.7  2290
777.6  2316.25
777.5  2263.125
777.4  2265.625
777.3  2151.25
777.2  2300.625
777.1  2243.75
777  2258.125
776.9  2277.5
776.8  2253.125
776.7  2252.5
776.6  2250
776.5  2307.5
776.4  2257.5
776.3  2211.875
776.2  2237.5
776.1  2202.5
776  2166.875
775.9  2168.125
775.8  2200.625
775.7  2209.375
775.6  2176.875
775.5  2186.25
775.4  2303.75
775.3  2300.625
775.2  2196.875
775.1  2236.875
775  2225.625

# Region:            Cl2p
# Acquisition Date:  12/22/21 15:44:47 UTC
# Analysis Method:   XPS
# Analyzer:          Phoibos 100 R6
# Analyzer Lens:     LargeArea:1.5kV
# Analyzer Slit:     1:0.2x20\B:open
# Scan Mode:         FixedAnalyzerTransmission
# Curves/Scan:       1
# Values/Curve:      91
# Dwell Time:        0.8
# Excitation Energy: 1486.61
# Binding Energy:    204
# Pass Energy:       30
# Bias Voltage:      90
# Detector Voltage:  2600
# Eff. Workfunction: 4.309
# Source:            X-Ray Dummy
# Comment:           
#
# Cycle: 0
# Number of Scans: 2
#
# Cycle: 0, Curve: 0
# Acquisition Date: 12/22/21 15:44:47 UTC
#
# ColumnLabels: energy counts/s
#
204  666.875
203.9  735.625
203.8  697.5
203.7  753.125
203.6  698.125
203.5  720.625
203.4  705.625
203.3  722.5
203.2  779.375
203.1  827.5
203  800.625
202.9  820.625
202.8  813.75
202.7  823.125
202.6  830
202.5  812.5
202.4  838.75
202.3  848.125
202.2  831.25
202.1  851.25
202  886.875
201.9  890
201.8  908.75
201.7  900.625
201.6  914.375
201.5  883.125
201.4  886.25
201.3  891.25
201.2  900
201.1  894.375
201  921.875
200.9  921.875
200.8  931.25
200.7  913.75
200.6  977.5
200.5  964.375
200.4  926.875
200.3  880.625
200.2  876.875
200.1  837.5
200  883.125
199.9  824.375
199.8  813.125
199.7  791.875
199.6  820.625
199.5  811.25
199.4  760.625
199.3  755
199.2  746.875
199.1  762.5
199  706.875
198.9  715
198.8  671.25
198.7  720.625
198.6  720
198.5  706.25
198.4  690
198.3  678.125
198.2  703.125
198.1  705.625
198  699.375
197.9  674.375
197.8  701.25
197.7  693.75
197.6  695.625
197.5  698.75
197.4  660
197.3  678.125
197.2  686.25
197.1  723.125
197  688.125
196.9  716.25
196.8  689.375
196.7  675.625
196.6  706.875
196.5  721.875
196.4  701.875
196.3  703.75
196.2  694.375
196.1  690
196  726.875
195.9  706.25
195.8  644.375
195.7  728.125
195.6  700.625
195.5  677.5
195.4  727.5
195.3  741.875
195.2  739.375
195.1  721.875
195  713.125

# Region:            C1s
# Acquisition Date:  12/22/21 15:46:34 UTC
# Analysis Method:   XPS
# Analyzer:          Phoibos 100 R6
# Analyzer Lens:     LargeArea:1.5kV
# Analyzer Slit:     1:0.2x20\B:open
# Scan Mode:         FixedAnalyzerTransmission
# Curves/Scan:       1
# Values/Curve:      131
# Dwell Time:        0.8
# Excitation Energy: 1486.61
# Binding Energy:    295
# Pass Energy:       30
# Bias Voltage:      90
# Detector Voltage:  2600
# Eff. Workfunction: 4.309
# Source:            X-Ray Dummy
# Comment:           
#
# Cycle: 0
# Number of Scans: 2
#
# Cycle: 0, Curve: 0
# Acquisition Date: 12/22/21 15:46:34 UTC
#
# ColumnLabels: energy counts/s
#
295  773.125
294.9  790
294.8  816.25
294.7  816.25
294.6  788.75
294.5  781.875
294.4  766.25
294.3  809.375
294.2  802.5
294.1  826.875
294  808.75
293.9  758.75
293.8  798.125
293.7  778.125
293.6  839.375
293.5  796.875
293.4  809.375
293.3  768.125
293.2  795.625
293.1  811.25
293  817.5
292.9  817.5
292.8  836.875
292.7  768.75
292.6  808.125
292.5  814.375
292.4  794.375
292.3  853.125
292.2  822.5
292.1  800.625
292  798.75
291.9  825
291.8  841.25
291.7  855.625
291.6  836.875
291.5  845.625
291.4  811.875
291.3  871.875
291.2  835
291.1  878.125
291  875
290.9  871.875
290.8  914.375
290.7  954.375
290.6  941.25
290.5  1022.5
290.4  1001.875
290.3  1066.875
290.2  1050.625
290.1  1119.375
290  1080
289.9  1200.625
289.8  1226.875
289.7  1280
289.6  1298.125
289.5  1297.5
289.4  1406.25
289.3  1433.125
289.2  1466.875
289.1  1471.25
289  1576.25
288.9  1518.125
288.8  1557.5
288.7  1533.125
288.6  1579.375
288.5  1514.375
288.4  1590.625
288.3  1658.75
288.2  1608.75
288.1  1561.875
288  1588.75
287.9  1600.625
287.8  1630.625
287.7  1607.5
287.6  1556.875
287.5  1581.875
287.4  1533.75
287.3  1475
287.2  1466.25
287.1  1457.5
287  1388.125
286.9  1387.5
286.8  1352.5
286.7  1285
286.6  1246.875
286.5  1216.25
286.4  1158.125
286.3  1084.375
286.2  1051.875
286.1  1049.375
286  983.125
285.9  939.375
285.8  914.375
285.7  879.375
285.6  873.75
285.5  815.625
285.4  815
285.3  823.75
285.2  806.25
285.1  790.625
285  742.5
284.9  734.375
284.8  774.375
284.7  717.5
284.6  770
284.5  740.625
284.4  756.875
284.3  768.125
284.2  726.25
284.1  725
284  740.625
283.9  778.125
283.8  768.75
283.7  721.875
283.6  755.625
283.5  766.25
283.4  763.125
283.3  747.5
283.2  741.25
283.1  733.75
283  751.875
282.9  696.25
282.8  705.625
282.7  720
282.6  711.25
282.5  715
282.4  714.375
282.3  709.375
282.2  716.875
282.1  754.375
282  698.75

# Region:            Si2p
# Acquisition Date:  12/22/21 15:48:29 UTC
# Analysis Method:   XPS
# Analyzer:          Phoibos 100 R6
# Analyzer Lens:     LargeArea:1.5kV
# Analyzer Slit:     1:0.2x20\B:open
# Scan Mode:         FixedAnalyzerTransmission
# Curves/Scan:       1
# Values/Curve:      141
# Dwell Time:        0.8
# Excitation Energy: 1486.61
# Binding Energy:    112
# Pass Energy:       30
# Bias Voltage:      90
# Detector Voltage:  2600
# Eff. Workfunction: 4.309
# Source:            X-Ray Dummy
# Comment:           
#
# Cycle: 0
# Number of Scans: 2
#
# Cycle: 0, Curve: 0
# Acquisition Date: 12/22/21 15:48:29 UTC
#
# ColumnLabels: energy counts/s
#
112  411.25
111.9  403.125
111.8  399.375
111.7  425.625
111.6  447.5
111.5  435.625
111.4  433.75
111.3  416.875
111.2  400
111.1  419.375
111  400.625
110.9  430
110.8  380.625
110.7  395.625
110.6  411.25
110.5  426.875
110.4  393.75
110.3  408.75
110.2  433.125
110.1  418.125
110  420.625
109.9  437.5
109.8  414.375
109.7  412.5
109.6  420
109.5  445.625
109.4  448.125
109.3  423.125
109.2  451.25
109.1  425.625
109  443.125
108.9  441.25
108.8  426.25
108.7  455
108.6  451.25
108.5  467.5
108.4  510
108.3  479.375
108.2  546.25
108.1  537.5
108  568.125
107.9  610
107.8  624.375
107.7  671.25
107.6  666.875
107.5  760
107.4  775
107.3  828.125
107.2  844.375
107.1  920.625
107  986.875
106.9  1095.625
106.8  1135
106.7  1234.375
106.6  1173.125
106.5  1269.375
106.4  1352.5
106.3  1266.25
106.2  1331.25
106.1  1363.75
106  1358.125
105.9  1321.875
105.8  1306.875
105.7  1297.5
105.6  1270
105.5  1215
105.4  1253.75
105.3  1109.375
105.2  1108.125
105.1  1004.375
105  917.5
104.9  937.5
104.8  846.875
104.7  757.5
104.6  758.125
104.5  703.125
104.4  656.25
104.3  618.75
104.2  615
104.1  551.875
104  550
103.9  507.5
103.8  500
103.7  500
103.6  490.625
103.5  449.375
103.4  455
103.3  450
103.2  455.625
103.1  431.875
103  422.5
102.9  467.5
102.8  424.375
102.7  420.625
102.6  399.375
102.5  415
102.4  416.875
102.3  411.875
102.2  424.375
102.1  410.625
102  396.25
101.9  383.125
101.8  392.5
101.7  378.75
101.6  417.5
101.5  406.25
101.4  403.75
101.3  398.75
101.2  374.375
101.1  395
101  385
100.9  378.75
100.8  383.75
100.7  365
100.6  408.75
100.5  401.875
100.4  416.875
100.3  358.125
100.2  370.625
100.1  375.625
100  402.5
99.9  364.375
99.8  368.75
99.7  367.5
99.6  389.375
99.5  385.625
99.4  365.625
99.3  387.5
99.2  374.375
99.1  367.5
99  409.375
98.9  385
98.8  376.875
98.7  389.375
98.6  390.625
98.5  364.375
98.4  388.75
98.3  373.75
98.2  382.5
98.1  390
98  363.75

# Region:            N1s
# Acquisition Date:  12/22/21 15:50:16 UTC
# Analysis Method:   XPS
# Analyzer:          Phoibos 100 R6
# Analyzer Lens:     LargeArea:1.5kV
# Analyzer Slit:     1:0.2x20\B:open
# Scan Mode:         FixedAnalyzerTransmission
# Curves/Scan:       1
# Values/Curve:      131
# Dwell Time:        0.8
# Excitation Energy: 1486.61
# Binding Energy:    408
# Pass Energy:       30
# Bias Voltage:      90
# Detector Voltage:  2600
# Eff. Workfunction: 4.309
# Source:            X-Ray Dummy
# Comment:           
#
# Cycle: 0
# Number of Scans: 3
#
# Cycle: 0, Curve: 0
# Acquisition Date: 12/22/21 15:50:16 UTC
#
# ColumnLabels: energy counts/s
#
408  720.83333
407.9  740.83333
407.8  762.08333
407.7  768.33333
407.6  768.75
407.5  773.75
407.4  771.25
407.3  768.75
407.2  737.5
407.1  759.58333
407  759.58333
406.9  770
406.8  757.08333
406.7  752.5
406.6  757.08333
406.5  754.58333
406.4  760.41667
406.3  764.16667
406.2  778.75
406.1  752.91667
406  760
405.9  758.33333
405.8  800.41667
405.7  739.16667
405.6  767.91667
405.5  766.25
405.4  766.66667
405.3  771.66667
405.2  772.08333
405.1  750
405  768.33333
404.9  752.5
404.8  773.33333
404.7  706.66667
404.6  782.08333
404.5  809.58333
404.4  801.66667
404.3  760
404.2  812.08333
404.1  855
404  848.75
403.9  827.91667
403.8  816.66667
403.7  870.41667
403.6  840
403.5  871.66667
403.4  917.91667
403.3  892.91667
403.2  872.08333
403.1  861.25
403  888.33333
402.9  875.41667
402.8  925.83333
402.7  923.33333
402.6  904.16667
402.5  948.33333
402.4  858.33333
402.3  922.5
402.2  940
402.1  928.75
402  907.08333
401.9  899.16667
401.8  950.41667
401.7  925
401.6  913.33333
401.5  890.41667
401.4  886.66667
401.3  843.75
401.2  862.5
401.1  887.08333
401  854.58333
400.9  829.58333
400.8  859.16667
400.7  828.75
400.6  821.66667
400.5  807.08333
400.4  785.83333
400.3  825
400.2  790.83333
400.1  773.75
400  805.83333
399.9  770.83333
399.8  756.25
399.7  782.08333
399.6  761.66667
399.5  752.5
399.4  766.66667
399.3  780.41667
399.2  754.58333
399.1  771.25
399  752.91667
398.9  753.33333
398.8  755.41667
398.7  754.16667
398.6  776.66667
398.5  767.08333
398.4  755.83333
398.3  730
398.2  712.91667
398.1  774.16667
398  757.91667
397.9  720.83333
397.8  752.08333
397.7  751.25
397.6  765.41667
397.5  748.75
397.4  755.41667
397.3  856.66667
397.2  753.75
397.1  776.66667
397  786.66667
396.9  755.83333
396.8  717.08333
396.7  749.58333
396.6  740
396.5  751.25
396.4  728.33333
396.3  749.16667
396.2  753.75
396.1  737.08333
396  756.66667
395.9  745
395.8  743.33333
395.7  757.91667
395.6  726.25
395.5  746.66667
395.4  746.25
395.3  728.33333
395.2  752.5
395.1  723.75
395  739.16667

# Region:            overview
# Acquisition Date:  12/22/21 15:41:14 UTC
# Analysis Method:   XPS
# Analyzer:          Phoibos 100 R6
# Analyzer Lens:     LargeArea:1.5kV
# Analyzer Slit:     1:0.2x20\B:open
# Scan Mode:         FixedAnalyzerTransmission
# Curves/Scan:       1
# Values/Curve:      1205
# Dwell Time:        0.2
# Excitation Energy: 1486.61
# Binding Energy:    1200
# Pass Energy:       50
# Bias Voltage:      90
# Detector Voltage:  2600
# Eff. Workfunction: 4.309
# Source:            X-Ray Dummy
# Comment:           
#
# Cycle: 0
# Number of Scans: 1
#
# Cycle: 0, Curve: 0
# Acquisition Date: 12/22/21 15:41:14 UTC
#
# ColumnLabels: energy counts/s
#
1200  8415
1199  8885
1198  8965
1197  8925
1196  8810
1195  8910
1194  8400
1193  8860
1192  8935
1191  8525
1190  8525
1189  8655
1188  9290
1187  9300
1186  8755
1185  9035
1184  8485
1183  9085
1182  8980
1181  8745
1180  8790
1179  8775
1178  8710
1177  9120
1176  9155
1175  9020
1174  8755
1173  9275
1172  8795
1171  8920
1170  8990
1169  8875
1168  9065
1167  9045
1166  8700
1165  8985
1164  8715
1163  8370
1162  8490
1161  8885
1160  8885
1159  8615
1158  8715
1157  8845
1156  8740
1155  8695
1154  8900
1153  8925
1152  8775
1151  8755
1150  8830
1149  8840
1148  8235
1147  8355
1146  9060
1145  8890
1144  8635
1143  8890
1142  9325
1141  9230
1140  8765
1139  8890
1138  9400
1137  8995
1136  9075
1135  9155
1134  8560
1133  8710
1132  8590
1131  8710
1130  8715
1129  8965
1128  9100
1127  8775
1126  8720
1125  8720
1124  8905
1123  8640
1122  8875
1121  8965
1120  9000
1119  8885
1118  8790
1117  8515
1116  8840
1115  8660
1114  8905
1113  8795
1112  8690
1111  8865
1110  9070
1109  8915
1108  9110
1107  8555
1106  8910
1105  8915
1104  9140
1103  8810
1102  8960
1101  8960
1100  8565
1099  8410
1098  9150
1097  8555
1096  9145
1095  8740
1094  8650
1093  8420
1092  9145
1091  8785
1090  8620
1089  8785
1088  8600
1087  9500
1086  8505
1085  8605
1084  8520
1083  8875
1082  8835
1081  8790
1080  8615
1079  8990
1078  9060
1077  8980
1076  9275
1075  9130
1074  9245
1073  8955
1072  9015
1071  8805
1070  9390
1069  9375
1068  9395
1067  9440
1066  10220
1065  10175
1064  9635
1063  9395
1062  9250
1061  9090
1060  9030
1059  8940
1058  8835
1057  8990
1056  8790
1055  8760
1054  8825
1053  8800
1052  8520
1051  8665
1050  8380
1049  8465
1048  8465
1047  9065
1046  8825
1045  8810
1044  8855
1043  8965
1042  8780
1041  8795
1040  8690
1039  8600
1038  8585
1037  8395
1036  8525
1035  8845
1034  8865
1033  8870
1032  8960
1031  8715
1030  8735
1029  8285
1028  8550
1027  9000
1026  8860
1025  8650
1024  8770
1023  8715
1022  8850
1021  9135
1020  8890
1019  9110
1018  8285
1017  9055
1016  8720
1015  8665
1014  8730
1013  8795
1012  8480
1011  8640
1010  8795
1009  8875
1008  8430
1007  9250
1006  9205
1005  9275
1004  8900
1003  9000
1002  8880
1001  9100
1000  8470
999  8490
998  7930
997  8195
996  8285
995  8065
994  8010
993  8420
992  8020
991  8270
990  8040
989  8070
988  8075
987  7835
986  7940
985  8515
984  8955
983  9010
982  9115
981  8945
980  8650
979  8370
978  7990
977  7575
976  7360
975  7105
974  7140
973  6850
972  6835
971  6310
970  6300
969  6350
968  6230
967  6150
966  5965
965  6285
964  6280
963  6210
962  6435
961  6340
960  6425
959  6555
958  5920
957  6135
956  6120
955  6425
954  6030
953  6200
952  6105
951  6205
950  6090
949  6295
948  6315
947  6260
946  6230
945  6685
944  6250
943  6440
942  6070
941  6470
940  6275
939  6525
938  6255
937  6180
936  6160
935  6750
934  6575
933  6460
932  6295
931  6490
930  6235
929  6355
928  6460
927  6500
926  6505
925  6330
924  6410
923  6380
922  6640
921  6375
920  6340
919  6615
918  6595
917  6765
916  6880
915  7000
914  6980
913  6835
912  6920
911  7240
910  7230
909  7775
908  7585
907  7275
906  7505
905  7875
904  7435
903  7655
902  7550
901  7430
900  7245
899  7145
898  6900
897  6525
896  7150
895  6675
894  7005
893  7000
892  7385
891  6855
890  7045
889  7105
888  6415
887  6185
886  6310
885  6105
884  6160
883  6185
882  6220
881  6130
880  5645
879  6350
878  5780
877  5925
876  6215
875  6100
874  5910
873  6240
872  5905
871  6185
870  6090
869  6030
868  6170
867  6020
866  6025
865  6075
864  6200
863  5890
862  6010
861  6085
860  6045
859  6080
858  6195
857  5815
856  6020
855  6235
854  5915
853  5915
852  6020
851  6315
850  5945
849  6095
848  5855
847  6405
846  6305
845  5990
844  6040
843  6125
842  6135
841  6195
840  5875
839  6585
838  6350
837  6065
836  6355
835  6300
834  6765
833  6265
832  6570
831  6440
830  6405
829  6320
828  6565
827  6560
826  6650
825  6950
824  6680
823  6735
822  6765
821  6730
820  6765
819  6535
818  6195
817  6640
816  6710
815  6535
814  6665
813  6695
812  6960
811  6780
810  6980
809  6910
808  6945
807  7020
806  6930
805  6330
804  6555
803  6730
802  6490
801  7150
800  8635
799  10255
798  10435
797  8640
796  7215
795  6860
794  6590
793  6490
792  6600
791  6395
790  6440
789  6430
788  6510
787  6475
786  6950
785  8400
784  10880
783  12300
782  9670
781  7580
780  6835
779  6265
778  6305
777  6160
776  5950
775  6335
774  6805
773  6390
772  6430
771  6050
770  6080
769  6040
768  5695
767  5835
766  6010
765  6130
764  6130
763  6120
762  6210
761  5935
760  5735
759  6045
758  5810
757  6065
756  7250
755  5885
754  6130
753  6080
752  6055
751  5895
750  5930
749  5680
748  5840
747  5890
746  5735
745  6120
744  6100
743  6025
742  5860
741  6185
740  5940
739  5735
738  5900
737  5950
736  6105
735  5980
734  6015
733  5735
732  5980
731  5865
730  6065
729  5990
728  6120
727  5720
726  6175
725  6070
724  5840
723  6110
722  5950
721  5975
720  6140
719  5830
718  6120
717  5955
716  5860
715  5720
714  6005
713  5895
712  6315
711  6005
710  5930
709  6235
708  6120
707  5935
706  6065
705  6170
704  6195
703  5780
702  6255
701  5855
700  6135
699  6070
698  6145
697  6015
696  6135
695  5855
694  5980
693  6050
692  6020
691  5915
690  6070
689  5805
688  5725
687  6045
686  5895
685  5740
684  6290
683  5900
682  5870
681  6130
680  6125
679  5805
678  6100
677  5965
676  5910
675  6005
674  6065
673  6415
672  6080
671  6185
670  5935
669  5990
668  5850
667  6020
666  6420
665  5995
664  6150
663  6065
662  5980
661  5845
660  6385
659  6220
658  6025
657  6175
656  5735
655  6110
654  6385
653  6130
652  6170
651  6305
650  5700
649  5870
648  6130
647  5855
646  6270
645  6105
644  6105
643  6225
642  6180
641  6030
640  5790
639  6315
638  5750
637  5880
636  5795
635  6300
634  6335
633  6305
632  6175
631  6380
630  6105
629  5975
628  6040
627  6455
626  5995
625  6140
624  6200
623  6290
622  5945
621  6010
620  6215
619  6005
618  6325
617  6070
616  6300
615  5895
614  5875
613  6220
612  6055
611  6135
610  6590
609  6515
608  6180
607  6020
606  6210
605  6085
604  6050
603  6080
602  6405
601  6065
600  6225
599  6210
598  6315
597  6145
596  6225
595  5955
594  5970
593  6180
592  6210
591  6485
590  6010
589  6425
588  6140
587  6150
586  6285
585  6065
584  6015
583  6180
582  6060
581  6655
580  6235
579  6045
578  6375
577  5845
576  5760
575  6285
574  6240
573  5770
572  5715
571  5555
570  5820
569  5715
568  5625
567  5785
566  5980
565  5670
564  6460
563  6900
562  6450
561  6485
560  6825
559  6645
558  6225
557  6865
556  6590
555  6085
554  5860
553  5770
552  5215
551  5110
550  5070
549  4760
548  4820
547  4375
546  4185
545  4100
544  4300
543  3845
542  3550
541  3900
540  3960
539  4335
538  5550
537  9785
536  16425
535  17085
534  10175
533  5005
532  3855
531  3615
530  3465
529  3355
528  3380
527  3665
526  3920
525  3995
524  3855
523  3460
522  3220
521  3085
520  2930
519  2800
518  3065
517  2720
516  2750
515  2825
514  3070
513  3090
512  2795
511  2890
510  3010
509  3030
508  2675
507  2720
506  2975
505  2890
504  2945
503  2895
502  2995
501  2965
500  3030
499  2565
498  2780
497  2550
496  2920
495  2735
494  2770
493  2770
492  2705
491  2675
490  2555
489  2740
488  2795
487  2705
486  2765
485  2640
484  2315
483  2645
482  2670
481  2645
480  2670
479  2730
478  2710
477  2585
476  2665
475  2730
474  2635
473  2570
472  2810
471  2575
470  2735
469  2755
468  2925
467  2680
466  2725
465  2645
464  2840
463  2750
462  2540
461  2480
460  2540
459  2680
458  2485
457  2685
456  2500
455  2545
454  2710
453  2505
452  2605
451  2740
450  2360
449  2590
448  2395
447  2505
446  2455
445  2530
444  2680
443  2655
442  2485
441  2550
440  2570
439  2490
438  2685
437  2485
436  2350
435  2515
434  2500
433  2765
432  2335
431  2410
430  2615
429  2590
428  2610
427  2575
426  2560
425  2365
424  2880
423  2405
422  2355
421  2490
420  2595
419  2695
418  2545
417  2345
416  2610
415  2525
414  2355
413  2665
412  2455
411  2340
410  2570
409  2550
408  2425
407  2370
406  2365
405  2715
404  2785
403  2795
402  2620
401  2570
400  2345
399  2380
398  2255
397  2400
396  2355
395  2550
394  2285
393  2535
392  2280
391  2175
390  2485
389  2400
388  2620
387  2400
386  2375
385  2280
384  2665
383  2255
382  2355
381  2250
380  2535
379  2270
378  2280
377  2365
376  2420
375  2340
374  2225
373  2260
372  2340
371  2210
370  2360
369  2315
368  2515
367  2485
366  2480
365  2450
364  2310
363  2270
362  2380
361  2275
360  2355
359  2430
358  2355
357  2350
356  2480
355  2520
354  2410
353  2355
352  2375
351  2585
350  2655
349  2390
348  2485
347  2495
346  2390
345  2325
344  2220
343  2270
342  2440
341  2430
340  2425
339  2395
338  2360
337  2245
336  2510
335  2500
334  2525
333  2380
332  2165
331  2395
330  2420
329  2445
328  2420
327  2185
326  2590
325  2510
324  2495
323  2365
322  2110
321  2540
320  2550
319  2540
318  2460
317  2140
316  2440
315  2440
314  2580
313  2555
312  2480
311  2560
310  2385
309  2520
308  2455
307  2475
306  2500
305  2560
304  2410
303  2475
302  2360
301  2405
300  2425
299  2540
298  2305
297  2575
296  2395
295  2540
294  2420
293  2800
292  2420
291  3070
290  3775
289  4445
288  4850
287  4240
286  2940
285  2495
284  2430
283  2330
282  2140
281  2405
280  2420
279  2405
278  2275
277  2225
276  2260
275  2330
274  2335
273  2135
272  2620
271  2430
270  2345
269  2230
268  2435
267  2195
266  2080
265  2205
264  2275
263  2240
262  2370
261  2080
260  2400
259  2315
258  2235
257  2005
256  2295
255  2205
254  2240
253  2180
252  2080
251  2165
250  2310
249  2070
248  2235
247  2255
246  2250
245  2055
244  2290
243  2175
242  2145
241  2315
240  2140
239  2120
238  2105
237  2375
236  2045
235  2245
234  2190
233  2245
232  2150
231  2235
230  2290
229  2140
228  2440
227  2125
226  2290
225  2165
224  2105
223  1875
222  2235
221  2165
220  2210
219  2080
218  2225
217  2160
216  2035
215  2060
214  2055
213  2035
212  2225
211  2195
210  2245
209  2070
208  2150
207  2095
206  2220
205  2225
204  2075
203  2340
202  2345
201  2725
200  2590
199  2045
198  2350
197  2175
196  2135
195  2185
194  2225
193  2100
192  2025
191  2105
190  2185
189  2045
188  2195
187  1915
186  2045
185  2270
184  2125
183  2430
182  2545
181  2465
180  2310
179  2125
178  2115
177  1930
176  1855
175  2175
174  1800
173  1920
172  1975
171  1920
170  1775
169  1895
168  1755
167  1615
166  1665
165  1740
164  1655
163  1595
162  1515
161  1740
160  2155
159  2740
158  3320
157  3735
156  3340
155  2250
154  1955
153  1700
152  1870
151  1705
150  1805
149  1545
148  1675
147  1735
146  1780
145  1570
144  1525
143  1475
142  1495
141  1620
140  1395
139  1420
138  1495
137  1445
136  1440
135  1490
134  1630
133  1360
132  1735
131  1550
130  1720
129  1740
128  1500
127  1450
126  1750
125  1595
124  1520
123  1550
122  1465
121  1480
120  1310
119  1395
118  1380
117  1135
116  1230
115  1225
114  1340
113  1125
112  1245
111  1130
110  1165
109  1390
108  1905
107  2935
106  3480
105  2695
104  1625
103  1360
102  1185
101  1160
100  1160
99  1240
98  1275
97  1405
96  1695
95  1725
94  1625
93  1805
92  1710
91  1255
90  1080
89  1195
88  1070
87  1050
86  995
85  1095
84  1070
83  1080
82  1170
81  895
80  1030
79  1245
78  935
77  1045
76  1055
75  1015
74  960
73  935
72  1100
71  965
70  985
69  980
68  1060
67  1040
66  905
65  915
64  950
63  940
62  1005
61  1275
60  1020
59  990
58  1095
57  1140
56  970
55  1020
54  1150
53  1125
52  1055
51  1080
50  1040
49  980
48  1035
47  1045
46  1060
45  850
44  985
43  1010
42  990
41  970
40  1095
39  1070
38  1015
37  925
36  1050
35  960
34  1000
33  1005
32  1040
31  995
30  1185
29  1315
28  1365
27  1360
26  1115
25  1020
24  980
23  845
22  895
21  990
20  975
19  945
18  1115
17  1020
16  1105
15  990
14  895
13  815
12  820
11  985
10  905
9  990
8  875
7  870
6  825
5  770
4  815
3  785
2  730
1  885
-2.2737368e-013  785
-1  725
-2  750
-3  700
-4  695

# Region:            O1s
# Acquisition Date:  12/22/21 15:52:34 UTC
# Analysis Method:   XPS
# Analyzer:          Phoibos 100 R6
# Analyzer Lens:     LargeArea:1.5kV
# Analyzer Slit:     1:0.2x20\B:open
# Scan Mode:         FixedAnalyzerTransmission
# Curves/Scan:       1
# Values/Curve:      171
# Dwell Time:        0.8
# Excitation Energy: 1486.61
# Binding Energy:    545
# Pass Energy:       30
# Bias Voltage:      90
# Detector Voltage:  2600
# Eff. Workfunction: 4.309
# Source:            X-Ray Dummy
# Comment:           
#
# Cycle: 0
# Number of Scans: 2
#
# Cycle: 0, Curve: 0
# Acquisition Date: 12/22/21 15:52:34 UTC
#
# ColumnLabels: energy counts/s
#
545  1241.25
544.9  1286.875
544.8  1252.5
544.7  1270.625
544.6  1235
544.5  1243.125
544.4  1220
544.3  1258.125
544.2  1144.375
544.1  1211.25
544  1226.25
543.9  1197.5
543.8  1221.25
543.7  1209.375
543.6  1153.75
543.5  1204.375
543.4  1176.875
543.3  1191.875
543.2  1181.875
543.1  1093.125
543  1123.75
542.9  1165
542.8  1181.25
542.7  1157.5
542.6  1157.5
542.5  1139.375
542.4  1092.5
542.3  1138.125
542.2  1190.625
542.1  1122.5
542  1128.125
541.9  1116.875
541.8  1126.875
541.7  1159.375
541.6  1145.625
541.5  1154.375
541.4  1138.75
541.3  1079.375
541.2  1150.625
541.1  1095
541  1113.75
540.9  1198.125
540.8  1176.875
540.7  1179.375
540.6  1140
540.5  1128.125
540.4  1124.375
540.3  1173.125
540.2  1183.125
540.1  1168.125
540  1202.5
539.9  1151.25
539.8  1178.75
539.7  1195
539.6  1174.375
539.5  1217.5
539.4  1211.25
539.3  1209.375
539.2  1278.125
539.1  1240.625
539  1191.875
538.9  1248.75
538.8  1259.375
538.7  1241.25
538.6  1279.375
538.5  1313.125
538.4  1301.875
538.3  1445.625
538.2  1382.5
538.1  1440
538  1470.625
537.9  1513.125
537.8  1548.125
537.7  1633.125
537.6  1723.125
537.5  1779.375
537.4  1941.25
537.3  2072.5
537.2  2301.25
537.1  2363.75
537  2624.375
536.9  2897.5
536.8  3025.625
536.7  3377.5
536.6  3675
536.5  3996.25
536.4  4538.125
536.3  4785.625
536.2  5145.625
536.1  5515.625
536  5976.25
535.9  6186.25
535.8  6550
535.7  6801.875
535.6  7033.75
535.5  7096.25
535.4  7220.625
535.3  7166.875
535.2  7251.875
535.1  6891.25
535  6740
534.9  6383.75
534.8  6055.625
534.7  5623.125
534.6  5351.25
534.5  5009.375
534.4  4648.125
534.3  4188.125
534.2  3819.375
534.1  3430.625
534  3140
533.9  2861.25
533.8  2555
533.7  2368.125
533.6  2138.75
533.5  1983.75
533.4  1855
533.3  1673.75
533.2  1580.625
533.1  1515
533  1445
532.9  1393.125
532.8  1264.375
532.7  1263.75
532.6  1255
532.5  1211.25
532.4  1209.375
532.3  1223.125
532.2  1158.125
532.1  1181.25
532  1167.5
531.9  1089.375
531.8  1145
531.7  1068.125
531.6  1090
531.5  1037.5
531.4  1048.75
531.3  1021.875
531.2  1031.25
531.1  997.5
531  968.75
530.9  987.5
530.8  1018.125
530.7  985.625
530.6  976.25
530.5  968.75
530.4  963.75
530.3  990.625
530.2  1028.75
530.1  1018.125
530  1031.875
529.9  1018.125
529.8  1014.375
529.7  1033.75
529.6  970.625
529.5  968.75
529.4  973.75
529.3  1013.125
529.2  973.125
529.1  990
529  1003.75
528.9  954.375
528.8  972.5
528.7  1038.75
528.6  946.875
528.5  931.875
528.4  982.5
528.3  951.25
528.2  935.625
528.1  973.125
528  968.75

