# Created by:        SpecsLab Prodigy, Version 4.60.2-r85849 
#
# XY-Serializer Export Settings:
#   Comment Prefix:           #
#   Output meta data:         yes
#   Energy Axis:              Binding Energy
#   Count Rate:               Counts per Second
#   Separate Scan Data:       no
#   Separate Channel Data:    no
#   External Channel Data:    yes
#   Transmission Function:    no
#   ErrorBar:                 no
#   Operation Results:        yes
#   Time Zone Format:         UTC
#
# Group:             Spectrum Group
#
# Region:            Ba3d(2)
# Acquisition Date:  12/22/21 14:03:12 UTC
# Analysis Method:   XPS
# Analyzer:          Phoibos 100 R6
# Analyzer Lens:     LargeArea:1.5kV
# Analyzer Slit:     1:0.2x20\B:open
# Scan Mode:         FixedAnalyzerTransmission
# Curves/Scan:       1
# Values/Curve:      271
# Dwell Time:        0.8
# Excitation Energy: 1486.61
# Binding Energy:    802
# Pass Energy:       30
# Bias Voltage:      90
# Detector Voltage:  2600
# Eff. Workfunction: 4.309
# Source:            X-Ray Dummy
# Comment:           
#
# Cycle: 0
# Number of Scans: 1
#
# Cycle: 0, Curve: 0
# Acquisition Date: 12/22/21 14:03:12 UTC
#
# ColumnLabels: energy counts/s
#
802  2370
801.9  2422.5
801.8  2306.25
801.7  2380
801.6  2348.75
801.5  2332.5
801.4  2335
801.3  2396.25
801.2  2366.25
801.1  2315
801  2423.75
800.9  2340
800.8  2441.25
800.7  2343.75
800.6  2292.5
800.5  2326.25
800.4  2410
800.3  2386.25
800.2  2475
800.1  2413.75
800  2388.75
799.9  2470
799.8  2517.5
799.7  2630
799.6  2601.25
799.5  2591.25
799.4  2606.25
799.3  2718.75
799.2  2677.5
799.1  2811.25
799  2781.25
798.9  2908.75
798.8  2907.5
798.7  2927.5
798.6  2891.25
798.5  2945
798.4  2928.75
798.3  2946.25
798.2  3158.75
798.1  3132.5
798  2958.75
797.9  2983.75
797.8  2875
797.7  2795
797.6  2913.75
797.5  2805
797.4  2782.5
797.3  2712.5
797.2  2656.25
797.1  2610
797  2623.75
796.9  2545
796.8  2515
796.7  2465
796.6  2577.5
796.5  2387.5
796.4  2398.75
796.3  2430
796.2  2358.75
796.1  2310
796  2410
795.9  2338.75
795.8  2327.5
795.7  2368.75
795.6  2237.5
795.5  2258.75
795.4  2315
795.3  2318.75
795.2  2277.5
795.1  2208.75
795  2198.75
794.9  2311.25
794.8  2213.75
794.7  2302.5
794.6  2295
794.5  2215
794.4  2286.25
794.3  2332.5
794.2  2358.75
794.1  2255
794  2293.75
793.9  2330
793.8  2297.5
793.7  2206.25
793.6  2326.25
793.5  2152.5
793.4  2318.75
793.3  2233.75
793.2  2292.5
793.1  2275
793  2231.25
792.9  2302.5
792.8  2280
792.7  2406.25
792.6  2353.75
792.5  2330
792.4  2230
792.3  2221.25
792.2  2325
792.1  2278.75
792  2245
791.9  2340
791.8  2243.75
791.7  2295
791.6  2338.75
791.5  2316.25
791.4  2295
791.3  2210
791.2  2321.25
791.1  2395
791  2261.25
790.9  2248.75
790.8  2380
790.7  2222.5
790.6  2167.5
790.5  2352.5
790.4  2211.25
790.3  2272.5
790.2  2312.5
790.1  2217.5
790  2313.75
789.9  2280
789.8  2407.5
789.7  2301.25
789.6  2256.25
789.5  2368.75
789.4  2397.5
789.3  2255
789.2  2343.75
789.1  2261.25
789  2337.5
788.9  2345
788.8  2280
788.7  2351.25
788.6  2408.75
788.5  2285
788.4  2326.25
788.3  2185
788.2  2276.25
788.1  2203.75
788  2296.25
787.9  2321.25
787.8  2196.25
787.7  2263.75
787.6  2266.25
787.5  2272.5
787.4  2245
787.3  2365
787.2  2307.5
787.1  2271.25
787  2373.75
786.9  2225
786.8  2295
786.7  2183.75
786.6  2271.25
786.5  2272.5
786.4  2307.5
786.3  2281.25
786.2  2271.25
786.1  2297.5
786  2267.5
785.9  2283.75
785.8  2423.75
785.7  2381.25
785.6  2356.25
785.5  2316.25
785.4  2348.75
785.3  2357.5
785.2  2238.75
785.1  2460
785  2428.75
784.9  2367.5
784.8  2438.75
784.7  2498.75
784.6  2431.25
784.5  2525
784.4  2555
784.3  2657.5
784.2  2623.75
784.1  2626.25
784  2846.25
783.9  2796.25
783.8  2782.5
783.7  2940
783.6  2923.75
783.5  3058.75
783.4  3170
783.3  3116.25
783.2  3225
783.1  3303.75
783  3165
782.9  3335
782.8  3203.75
782.7  3191.25
782.6  3208.75
782.5  3166.25
782.4  3021.25
782.3  3032.5
782.2  2916.25
782.1  2965
782  2816.25
781.9  2755
781.8  2675
781.7  2701.25
781.6  2561.25
781.5  2640
781.4  2507.5
781.3  2526.25
781.2  2392.5
781.1  2503.75
781  2415
780.9  2281.25
780.8  2437.5
780.7  2312.5
780.6  2353.75
780.5  2297.5
780.4  2386.25
780.3  2146.25
780.2  2343.75
780.1  2265
780  2225
779.9  2228.75
779.8  2203.75
779.7  2236.25
779.6  2283.75
779.5  2195
779.4  2165
779.3  2205
779.2  2256.25
779.1  2061.25
779  2253.75
778.9  2213.75
778.8  2163.75
778.7  2278.75
778.6  2223.75
778.5  2153.75
778.4  2280
778.3  2167.5
778.2  2121.25
778.1  2108.75
778  2215
777.9  2245
777.8  2223.75
777.7  2073.75
777.6  2148.75
777.5  2118.75
777.4  2095
777.3  2175
777.2  2111.25
777.1  2180
777  2228.75
776.9  2193.75
776.8  2302.5
776.7  2151.25
776.6  2180
776.5  2137.5
776.4  2207.5
776.3  2162.5
776.2  2102.5
776.1  2135
776  2126.25
775.9  2167.5
775.8  2205
775.7  2202.5
775.6  2216.25
775.5  2116.25
775.4  2052.5
775.3  2176.25
775.2  2148.75
775.1  2172.5
775  2236.25

# Region:            Cl2p
# Acquisition Date:  12/22/21 14:04:26 UTC
# Analysis Method:   XPS
# Analyzer:          Phoibos 100 R6
# Analyzer Lens:     LargeArea:1.5kV
# Analyzer Slit:     1:0.2x20\B:open
# Scan Mode:         FixedAnalyzerTransmission
# Curves/Scan:       1
# Values/Curve:      91
# Dwell Time:        0.8
# Excitation Energy: 1486.61
# Binding Energy:    204
# Pass Energy:       30
# Bias Voltage:      90
# Detector Voltage:  2600
# Eff. Workfunction: 4.309
# Source:            X-Ray Dummy
# Comment:           
#
# Cycle: 0
# Number of Scans: 1
#
# Cycle: 0, Curve: 0
# Acquisition Date: 12/22/21 14:04:26 UTC
#
# ColumnLabels: energy counts/s
#
204  692.5
203.9  702.5
203.8  673.75
203.7  695
203.6  666.25
203.5  705
203.4  717.5
203.3  693.75
203.2  731.25
203.1  746.25
203  673.75
202.9  693.75
202.8  698.75
202.7  680
202.6  705
202.5  685
202.4  765
202.3  737.5
202.2  736.25
202.1  751.25
202  752.5
201.9  730
201.8  816.25
201.7  716.25
201.6  708.75
201.5  830
201.4  718.75
201.3  805
201.2  773.75
201.1  788.75
201  777.5
200.9  712.5
200.8  762.5
200.7  751.25
200.6  782.5
200.5  745
200.4  790
200.3  742.5
200.2  790
200.1  791.25
200  780
199.9  741.25
199.8  715
199.7  727.5
199.6  751.25
199.5  747.5
199.4  736.25
199.3  720
199.2  693.75
199.1  631.25
199  738.75
198.9  735
198.8  645
198.7  651.25
198.6  686.25
198.5  680
198.4  700
198.3  703.75
198.2  666.25
198.1  755
198  633.75
197.9  727.5
197.8  716.25
197.7  637.5
197.6  637.5
197.5  701.25
197.4  667.5
197.3  688.75
197.2  695
197.1  658.75
197  666.25
196.9  715
196.8  661.25
196.7  705
196.6  702.5
196.5  706.25
196.4  707.5
196.3  667.5
196.2  662.5
196.1  660
196  673.75
195.9  638.75
195.8  663.75
195.7  710
195.6  658.75
195.5  650
195.4  667.5
195.3  711.25
195.2  683.75
195.1  676.25
195  676.25

# Region:            C1s
# Acquisition Date:  12/22/21 14:06:13 UTC
# Analysis Method:   XPS
# Analyzer:          Phoibos 100 R6
# Analyzer Lens:     LargeArea:1.5kV
# Analyzer Slit:     1:0.2x20\B:open
# Scan Mode:         FixedAnalyzerTransmission
# Curves/Scan:       1
# Values/Curve:      131
# Dwell Time:        0.8
# Excitation Energy: 1486.61
# Binding Energy:    295
# Pass Energy:       30
# Bias Voltage:      90
# Detector Voltage:  2600
# Eff. Workfunction: 4.309
# Source:            X-Ray Dummy
# Comment:           
#
# Cycle: 0
# Number of Scans: 1
#
# Cycle: 0, Curve: 0
# Acquisition Date: 12/22/21 14:06:13 UTC
#
# ColumnLabels: energy counts/s
#
295  713.75
294.9  766.25
294.8  740
294.7  741.25
294.6  770
294.5  776.25
294.4  793.75
294.3  811.25
294.2  796.25
294.1  743.75
294  757.5
293.9  766.25
293.8  831.25
293.7  807.5
293.6  783.75
293.5  801.25
293.4  770
293.3  792.5
293.2  740
293.1  788.75
293  818.75
292.9  801.25
292.8  758.75
292.7  820
292.6  822.5
292.5  782.5
292.4  740
292.3  818.75
292.2  811.25
292.1  816.25
292  807.5
291.9  800
291.8  837.5
291.7  750
291.6  777.5
291.5  805
291.4  863.75
291.3  823.75
291.2  806.25
291.1  828.75
291  861.25
290.9  831.25
290.8  898.75
290.7  916.25
290.6  918.75
290.5  927.5
290.4  883.75
290.3  880
290.2  1056.25
290.1  1018.75
290  1030
289.9  1111.25
289.8  1230
289.7  1206.25
289.6  1218.75
289.5  1276.25
289.4  1361.25
289.3  1310
289.2  1381.25
289.1  1442.5
289  1516.25
288.9  1455
288.8  1501.25
288.7  1607.5
288.6  1630
288.5  1602.5
288.4  1613.75
288.3  1591.25
288.2  1666.25
288.1  1545
288  1585
287.9  1571.25
287.8  1677.5
287.7  1628.75
287.6  1637.5
287.5  1536.25
287.4  1606.25
287.3  1622.5
287.2  1586.25
287.1  1490
287  1425
286.9  1438.75
286.8  1326.25
286.7  1320
286.6  1315
286.5  1235
286.4  1182.5
286.3  1181.25
286.2  1091.25
286.1  1070
286  1051.25
285.9  998.75
285.8  936.25
285.7  926.25
285.6  862.5
285.5  841.25
285.4  880
285.3  776.25
285.2  828.75
285.1  793.75
285  803.75
284.9  792.5
284.8  778.75
284.7  791.25
284.6  718.75
284.5  750
284.4  730
284.3  768.75
284.2  711.25
284.1  691.25
284  746.25
283.9  755
283.8  776.25
283.7  708.75
283.6  720
283.5  791.25
283.4  726.25
283.3  743.75
283.2  747.5
283.1  716.25
283  740
282.9  701.25
282.8  686.25
282.7  748.75
282.6  701.25
282.5  746.25
282.4  732.5
282.3  737.5
282.2  651.25
282.1  697.5
282  651.25

# Region:            Si2p
# Acquisition Date:  12/22/21 14:08:08 UTC
# Analysis Method:   XPS
# Analyzer:          Phoibos 100 R6
# Analyzer Lens:     LargeArea:1.5kV
# Analyzer Slit:     1:0.2x20\B:open
# Scan Mode:         FixedAnalyzerTransmission
# Curves/Scan:       1
# Values/Curve:      141
# Dwell Time:        0.8
# Excitation Energy: 1486.61
# Binding Energy:    112
# Pass Energy:       30
# Bias Voltage:      90
# Detector Voltage:  2600
# Eff. Workfunction: 4.309
# Source:            X-Ray Dummy
# Comment:           
#
# Cycle: 0
# Number of Scans: 1
#
# Cycle: 0, Curve: 0
# Acquisition Date: 12/22/21 14:08:08 UTC
#
# ColumnLabels: energy counts/s
#
112  366.25
111.9  402.5
111.8  410
111.7  398.75
111.6  396.25
111.5  437.5
111.4  440
111.3  430
111.2  393.75
111.1  441.25
111  431.25
110.9  411.25
110.8  443.75
110.7  421.25
110.6  401.25
110.5  432.5
110.4  443.75
110.3  400
110.2  397.5
110.1  420
110  403.75
109.9  427.5
109.8  392.5
109.7  443.75
109.6  406.25
109.5  433.75
109.4  408.75
109.3  381.25
109.2  430
109.1  426.25
109  435
108.9  405
108.8  405
108.7  407.5
108.6  443.75
108.5  428.75
108.4  460
108.3  490
108.2  476.25
108.1  482.5
108  531.25
107.9  533.75
107.8  607.5
107.7  632.5
107.6  635
107.5  702.5
107.4  741.25
107.3  778.75
107.2  850
107.1  876.25
107  910
106.9  991.25
106.8  1135
106.7  1160
106.6  1125
106.5  1355
106.4  1266.25
106.3  1351.25
106.2  1383.75
106.1  1450
106  1402.5
105.9  1423.75
105.8  1498.75
105.7  1401.25
105.6  1357.5
105.5  1282.5
105.4  1296.25
105.3  1122.5
105.2  1106.25
105.1  1077.5
105  1046.25
104.9  921.25
104.8  906.25
104.7  861.25
104.6  796.25
104.5  730
104.4  726.25
104.3  642.5
104.2  627.5
104.1  593.75
104  538.75
103.9  563.75
103.8  511.25
103.7  483.75
103.6  462.5
103.5  471.25
103.4  426.25
103.3  463.75
103.2  443.75
103.1  422.5
103  427.5
102.9  410
102.8  380
102.7  403.75
102.6  418.75
102.5  368.75
102.4  388.75
102.3  393.75
102.2  390
102.1  415
102  355
101.9  422.5
101.8  383.75
101.7  410
101.6  372.5
101.5  388.75
101.4  386.25
101.3  370
101.2  401.25
101.1  432.5
101  426.25
100.9  372.5
100.8  383.75
100.7  395
100.6  386.25
100.5  363.75
100.4  386.25
100.3  372.5
100.2  367.5
100.1  391.25
100  355
99.9  383.75
99.8  381.25
99.7  377.5
99.6  355
99.5  373.75
99.4  375
99.3  370
99.2  418.75
99.1  393.75
99  362.5
98.9  393.75
98.8  331.25
98.7  401.25
98.6  381.25
98.5  356.25
98.4  362.5
98.3  377.5
98.2  398.75
98.1  343.75
98  377.5

# Region:            N1s
# Acquisition Date:  12/22/21 14:09:55 UTC
# Analysis Method:   XPS
# Analyzer:          Phoibos 100 R6
# Analyzer Lens:     LargeArea:1.5kV
# Analyzer Slit:     1:0.2x20\B:open
# Scan Mode:         FixedAnalyzerTransmission
# Curves/Scan:       1
# Values/Curve:      131
# Dwell Time:        0.8
# Excitation Energy: 1486.61
# Binding Energy:    408
# Pass Energy:       30
# Bias Voltage:      90
# Detector Voltage:  2600
# Eff. Workfunction: 4.309
# Source:            X-Ray Dummy
# Comment:           
#
# Cycle: 0
# Number of Scans: 1
#
# Cycle: 0, Curve: 0
# Acquisition Date: 12/22/21 14:09:55 UTC
#
# ColumnLabels: energy counts/s
#
408  733.75
407.9  761.25
407.8  780
407.7  717.5
407.6  757.5
407.5  738.75
407.4  720
407.3  782.5
407.2  721.25
407.1  715
407  771.25
406.9  765
406.8  766.25
406.7  718.75
406.6  735
406.5  775
406.4  776.25
406.3  747.5
406.2  723.75
406.1  771.25
406  717.5
405.9  822.5
405.8  746.25
405.7  772.5
405.6  710
405.5  772.5
405.4  767.5
405.3  753.75
405.2  753.75
405.1  742.5
405  728.75
404.9  723.75
404.8  741.25
404.7  743.75
404.6  778.75
404.5  735
404.4  732.5
404.3  822.5
404.2  843.75
404.1  817.5
404  751.25
403.9  836.25
403.8  841.25
403.7  830
403.6  856.25
403.5  875
403.4  905
403.3  840
403.2  871.25
403.1  865
403  895
402.9  851.25
402.8  866.25
402.7  883.75
402.6  908.75
402.5  887.5
402.4  901.25
402.3  892.5
402.2  946.25
402.1  973.75
402  887.5
401.9  921.25
401.8  898.75
401.7  868.75
401.6  892.5
401.5  936.25
401.4  898.75
401.3  857.5
401.2  910
401.1  906.25
401  877.5
400.9  916.25
400.8  840
400.7  847.5
400.6  871.25
400.5  815
400.4  846.25
400.3  776.25
400.2  843.75
400.1  822.5
400  783.75
399.9  842.5
399.8  703.75
399.7  725
399.6  791.25
399.5  750
399.4  746.25
399.3  738.75
399.2  758.75
399.1  723.75
399  745
398.9  688.75
398.8  752.5
398.7  747.5
398.6  761.25
398.5  773.75
398.4  730
398.3  715
398.2  768.75
398.1  751.25
398  765
397.9  788.75
397.8  760
397.7  721.25
397.6  690
397.5  805
397.4  767.5
397.3  765
397.2  797.5
397.1  685
397  731.25
396.9  738.75
396.8  741.25
396.7  748.75
396.6  750
396.5  696.25
396.4  703.75
396.3  730
396.2  763.75
396.1  762.5
396  791.25
395.9  792.5
395.8  736.25
395.7  800
395.6  738.75
395.5  778.75
395.4  708.75
395.3  738.75
395.2  703.75
395.1  763.75
395  740

# Region:            O1s
# Acquisition Date:  12/22/21 14:12:14 UTC
# Analysis Method:   XPS
# Analyzer:          Phoibos 100 R6
# Analyzer Lens:     LargeArea:1.5kV
# Analyzer Slit:     1:0.2x20\B:open
# Scan Mode:         FixedAnalyzerTransmission
# Curves/Scan:       1
# Values/Curve:      171
# Dwell Time:        0.8
# Excitation Energy: 1486.61
# Binding Energy:    545
# Pass Energy:       30
# Bias Voltage:      90
# Detector Voltage:  2600
# Eff. Workfunction: 4.309
# Source:            X-Ray Dummy
# Comment:           
#
# Cycle: 0
# Number of Scans: 1
#
# Cycle: 0, Curve: 0
# Acquisition Date: 12/22/21 14:12:14 UTC
#
# ColumnLabels: energy counts/s
#
545  1312.5
544.9  1175
544.8  1273.75
544.7  1262.5
544.6  1253.75
544.5  1280
544.4  1237.5
544.3  1210
544.2  1265
544.1  1247.5
544  1210
543.9  1206.25
543.8  1206.25
543.7  1158.75
543.6  1172.5
543.5  1201.25
543.4  1153.75
543.3  1173.75
543.2  1171.25
543.1  1148.75
543  1125
542.9  1190
542.8  1191.25
542.7  1157.5
542.6  1162.5
542.5  1135
542.4  1203.75
542.3  1196.25
542.2  1128.75
542.1  1107.5
542  1121.25
541.9  1111.25
541.8  1203.75
541.7  1183.75
541.6  1135
541.5  1131.25
541.4  1208.75
541.3  1151.25
541.2  1123.75
541.1  1141.25
541  1242.5
540.9  1193.75
540.8  1238.75
540.7  1138.75
540.6  1142.5
540.5  1188.75
540.4  1121.25
540.3  1177.5
540.2  1115
540.1  1247.5
540  1211.25
539.9  1176.25
539.8  1236.25
539.7  1196.25
539.6  1212.5
539.5  1250
539.4  1156.25
539.3  1183.75
539.2  1215
539.1  1235
539  1282.5
538.9  1335
538.8  1316.25
538.7  1312.5
538.6  1408.75
538.5  1292.5
538.4  1416.25
538.3  1332.5
538.2  1283.75
538.1  1426.25
538  1540
537.9  1458.75
537.8  1440
537.7  1495
537.6  1631.25
537.5  1671.25
537.4  1796.25
537.3  1970
537.2  2183.75
537.1  2250
537  2546.25
536.9  2670
536.8  2893.75
536.7  3200
536.6  3575
536.5  3926.25
536.4  4170
536.3  4690
536.2  5098.75
536.1  5485
536  5803.75
535.9  6491.25
535.8  6740
535.7  7023.75
535.6  7380
535.5  7515
535.4  7870
535.3  8026.25
535.2  8100
535.1  7785
535  7740
534.9  7386.25
534.8  7080
534.7  6841.25
534.6  6273.75
534.5  6016.25
534.4  5386.25
534.3  5062.5
534.2  4480
534.1  4215
534  3722.5
533.9  3331.25
533.8  3065
533.7  2746.25
533.6  2470
533.5  2276.25
533.4  2167.5
533.3  1960
533.2  1868.75
533.1  1696.25
533  1667.5
532.9  1532.5
532.8  1468.75
532.7  1270
532.6  1341.25
532.5  1246.25
532.4  1186.25
532.3  1243.75
532.2  1156.25
532.1  1197.5
532  1156.25
531.9  1167.5
531.8  1105
531.7  1058.75
531.6  1083.75
531.5  1110
531.4  1045
531.3  1038.75
531.2  1087.5
531.1  1062.5
531  1115
530.9  1027.5
530.8  1000
530.7  1033.75
530.6  1005
530.5  978.75
530.4  991.25
530.3  1003.75
530.2  1026.25
530.1  1005
530  953.75
529.9  958.75
529.8  1032.5
529.7  982.5
529.6  956.25
529.5  961.25
529.4  1002.5
529.3  1018.75
529.2  1026.25
529.1  952.5
529  962.5
528.9  975
528.8  961.25
528.7  992.5
528.6  1018.75
528.5  965
528.4  948.75
528.3  953.75
528.2  868.75
528.1  967.5
528  912.5

# Region:            Ba3d
# Acquisition Date:  12/22/21 14:13:45 UTC
# Analysis Method:   XPS
# Analyzer:          Phoibos 100 R6
# Analyzer Lens:     LargeArea:1.5kV
# Analyzer Slit:     1:0.2x20\B:open
# Scan Mode:         FixedAnalyzerTransmission
# Curves/Scan:       1
# Values/Curve:      111
# Dwell Time:        0.8
# Excitation Energy: 1486.61
# Binding Energy:    786
# Pass Energy:       30
# Bias Voltage:      90
# Detector Voltage:  2600
# Eff. Workfunction: 4.309
# Source:            X-Ray Dummy
# Comment:           
#
# Cycle: 0
# Number of Scans: 1
#
# Cycle: 0, Curve: 0
# Acquisition Date: 12/22/21 14:13:45 UTC
#
# ColumnLabels: energy counts/s
#
786  2228.75
785.9  2323.75
785.8  2263.75
785.7  2257.5
785.6  2253.75
785.5  2373.75
785.4  2228.75
785.3  2378.75
785.2  2335
785.1  2447.5
785  2333.75
784.9  2333.75
784.8  2483.75
784.7  2392.5
784.6  2482.5
784.5  2415
784.4  2536.25
784.3  2598.75
784.2  2563.75
784.1  2652.5
784  2736.25
783.9  2778.75
783.8  2883.75
783.7  2947.5
783.6  2926.25
783.5  2916.25
783.4  3027.5
783.3  3112.5
783.2  3150
783.1  3140
783  3258.75
782.9  3307.5
782.8  3177.5
782.7  3218.75
782.6  3190
782.5  3181.25
782.4  3026.25
782.3  3011.25
782.2  2991.25
782.1  2946.25
782  2773.75
781.9  2788.75
781.8  2690
781.7  2665
781.6  2633.75
781.5  2515
781.4  2417.5
781.3  2512.5
781.2  2416.25
781.1  2378.75
781  2320
780.9  2357.5
780.8  2280
780.7  2291.25
780.6  2288.75
780.5  2245
780.4  2256.25
780.3  2180
780.2  2217.5
780.1  2268.75
780  2223.75
779.9  2265
779.8  2262.5
779.7  2163.75
779.6  2198.75
779.5  2228.75
779.4  2257.5
779.3  2082.5
779.2  2187.5
779.1  2190
779  2223.75
778.9  2227.5
778.8  2202.5
778.7  2255
778.6  2208.75
778.5  2140
778.4  2131.25
778.3  2145
778.2  2226.25
778.1  1996.25
778  2176.25
777.9  2177.5
777.8  2238.75
777.7  2225
777.6  2182.5
777.5  2200
777.4  2212.5
777.3  2156.25
777.2  2127.5
777.1  2187.5
777  2231.25
776.9  2112.5
776.8  2270
776.7  2188.75
776.6  2141.25
776.5  2173.75
776.4  2196.25
776.3  2197.5
776.2  2191.25
776.1  2188.75
776  2183.75
775.9  2073.75
775.8  2203.75
775.7  2177.5
775.6  2136.25
775.5  2125
775.4  2153.75
775.3  2207.5
775.2  2267.5
775.1  2205
775  2186.25

