# Created by:        SpecsLab Prodigy, Version 4.60.2-r85849 
#
# XY-Serializer Export Settings:
#   Comment Prefix:           #
#   Output meta data:         yes
#   Energy Axis:              Binding Energy
#   Count Rate:               Counts per Second
#   Separate Scan Data:       no
#   Separate Channel Data:    no
#   External Channel Data:    yes
#   Transmission Function:    no
#   ErrorBar:                 no
#   Operation Results:        yes
#   Time Zone Format:         UTC
#
# Group:             Spectrum Group
#
# Region:            C1s
# Acquisition Date:  11/11/21 16:57:34 UTC
# Analysis Method:   XPS
# Analyzer:          Phoibos 100 R6
# Analyzer Lens:     LargeArea:1.5kV
# Analyzer Slit:     1:0.2x20\B:open
# Scan Mode:         FixedAnalyzerTransmission
# Curves/Scan:       1
# Values/Curve:      131
# Dwell Time:        0.8
# Excitation Energy: 1486.61
# Binding Energy:    295
# Pass Energy:       30
# Bias Voltage:      90
# Detector Voltage:  2600
# Eff. Workfunction: 4.309
# Source:            X-Ray Dummy
# Comment:           
#
# Cycle: 0
# Number of Scans: 2
#
# Cycle: 0, Curve: 0
# Acquisition Date: 11/11/21 16:57:34 UTC
#
# ColumnLabels: energy counts/s
#
295  553.75
294.9  621.875
294.8  582.5
294.7  598.125
294.6  583.125
294.5  575.625
294.4  615
294.3  579.375
294.2  573.125
294.1  584.375
294  548.125
293.9  586.25
293.8  568.125
293.7  566.25
293.6  592.5
293.5  601.875
293.4  578.125
293.3  600
293.2  579.375
293.1  563.125
293  576.25
292.9  574.375
292.8  571.875
292.7  551.25
292.6  567.5
292.5  590
292.4  591.25
292.3  583.125
292.2  584.375
292.1  603.75
292  608.125
291.9  601.25
291.8  605.625
291.7  598.75
291.6  586.25
291.5  585
291.4  585
291.3  625
291.2  615
291.1  618.125
291  638.125
290.9  637.5
290.8  614.375
290.7  636.875
290.6  611.875
290.5  619.375
290.4  664.375
290.3  675
290.2  649.375
290.1  663.75
290  682.5
289.9  733.75
289.8  684.375
289.7  676.875
289.6  690.625
289.5  748.75
289.4  758.125
289.3  756.25
289.2  738.75
289.1  735.625
289  751.875
288.9  775.625
288.8  776.875
288.7  740
288.6  731.875
288.5  719.375
288.4  707.5
288.3  753.125
288.2  710
288.1  702.5
288  683.75
287.9  672.5
287.8  681.875
287.7  670.625
287.6  591.875
287.5  625.625
287.4  627.5
287.3  619.375
287.2  593.125
287.1  595
287  602.5
286.9  618.125
286.8  609.375
286.7  590.625
286.6  537.5
286.5  581.25
286.4  615
286.3  587.5
286.2  583.75
286.1  578.125
286  592.5
285.9  610
285.8  590.625
285.7  601.875
285.6  548.125
285.5  573.125
285.4  528.125
285.3  592.5
285.2  608.75
285.1  587.5
285  596.25
284.9  582.5
284.8  608.75
284.7  589.375
284.6  565
284.5  579.375
284.4  591.25
284.3  563.125
284.2  578.125
284.1  574.375
284  591.25
283.9  563.75
283.8  546.25
283.7  578.125
283.6  596.875
283.5  594.375
283.4  580.625
283.3  555.625
283.2  618.125
283.1  566.875
283  627.5
282.9  576.875
282.8  592.5
282.7  571.875
282.6  606.875
282.5  593.125
282.4  545
282.3  626.875
282.2  557.5
282.1  561.875
282  555.625

# Region:            Si2p
# Acquisition Date:  11/11/21 17:11:47 UTC
# Analysis Method:   XPS
# Analyzer:          Phoibos 100 R6
# Analyzer Lens:     LargeArea:1.5kV
# Analyzer Slit:     1:0.2x20\B:open
# Scan Mode:         FixedAnalyzerTransmission
# Curves/Scan:       1
# Values/Curve:      141
# Dwell Time:        0.8
# Excitation Energy: 1486.61
# Binding Energy:    112
# Pass Energy:       30
# Bias Voltage:      90
# Detector Voltage:  2600
# Eff. Workfunction: 4.309
# Source:            X-Ray Dummy
# Comment:           
#
# Cycle: 0
# Number of Scans: 4
#
# Cycle: 0, Curve: 0
# Acquisition Date: 11/11/21 17:11:47 UTC
#
# ColumnLabels: energy counts/s
#
112  351.875
111.9  348.125
111.8  345.625
111.7  350
111.6  352.1875
111.5  365.625
111.4  380.9375
111.3  374.375
111.2  387.1875
111.1  375
111  376.875
110.9  395.625
110.8  395.9375
110.7  421.5625
110.6  412.1875
110.5  447.8125
110.4  452.5
110.3  451.875
110.2  509.0625
110.1  520
110  582.8125
109.9  591.875
109.8  618.75
109.7  696.25
109.6  758.125
109.5  855.625
109.4  920.625
109.3  1021.25
109.2  1052.8125
109.1  1146.5625
109  1229.0625
108.9  1324.6875
108.8  1435.625
108.7  1512.1875
108.6  1559.0625
108.5  1647.8125
108.4  1748.4375
108.3  1804.6875
108.2  1834.375
108.1  1843.4375
108  1811.25
107.9  1791.25
107.8  1744.6875
107.7  1675.3125
107.6  1592.1875
107.5  1507.5
107.4  1461.5625
107.3  1325.3125
107.2  1248.4375
107.1  1146.5625
107  1090.625
106.9  987.1875
106.8  899.0625
106.7  806.5625
106.6  747.1875
106.5  693.75
106.4  655.3125
106.3  612.8125
106.2  556.875
106.1  524.0625
106  464.375
105.9  443.4375
105.8  439.6875
105.7  425.3125
105.6  416.875
105.5  387.5
105.4  380.625
105.3  368.75
105.2  365.625
105.1  375.625
105  340.9375
104.9  344.0625
104.8  355.9375
104.7  355
104.6  348.125
104.5  362.1875
104.4  346.5625
104.3  330
104.2  344.0625
104.1  333.75
104  336.25
103.9  327.8125
103.8  331.875
103.7  325.625
103.6  332.1875
103.5  339.375
103.4  329.375
103.3  315.3125
103.2  327.8125
103.1  320
103  331.25
102.9  319.0625
102.8  328.75
102.7  337.8125
102.6  300.625
102.5  321.5625
102.4  320.3125
102.3  328.4375
102.2  304.6875
102.1  309.6875
102  332.8125
101.9  321.875
101.8  311.5625
101.7  327.1875
101.6  326.25
101.5  327.1875
101.4  303.125
101.3  309.375
101.2  325.3125
101.1  336.25
101  321.5625
100.9  326.25
100.8  321.25
100.7  322.8125
100.6  308.125
100.5  325.3125
100.4  333.125
100.3  328.4375
100.2  331.875
100.1  321.5625
100  341.25
99.9  338.125
99.8  335.9375
99.7  362.8125
99.6  370.9375
99.5  352.5
99.4  361.5625
99.3  366.5625
99.2  384.6875
99.1  385.625
99  380.3125
98.9  400.625
98.8  389.375
98.7  413.125
98.6  400.3125
98.5  409.0625
98.4  409.375
98.3  442.5
98.2  414.6875
98.1  414.0625
98  438.75

# Region:            N1s
# Acquisition Date:  11/11/21 16:53:28 UTC
# Analysis Method:   XPS
# Analyzer:          Phoibos 100 R6
# Analyzer Lens:     LargeArea:1.5kV
# Analyzer Slit:     1:0.2x20\B:open
# Scan Mode:         FixedAnalyzerTransmission
# Curves/Scan:       1
# Values/Curve:      131
# Dwell Time:        0.8
# Excitation Energy: 1486.61
# Binding Energy:    408
# Pass Energy:       30
# Bias Voltage:      90
# Detector Voltage:  2600
# Eff. Workfunction: 4.309
# Source:            X-Ray Dummy
# Comment:           
#
# Cycle: 0
# Number of Scans: 1
#
# Cycle: 0, Curve: 0
# Acquisition Date: 11/11/21 16:53:28 UTC
#
# ColumnLabels: energy counts/s
#
408  623.75
407.9  593.75
407.8  602.5
407.7  591.25
407.6  617.5
407.5  623.75
407.4  601.25
407.3  543.75
407.2  551.25
407.1  608.75
407  585
406.9  600
406.8  625
406.7  587.5
406.6  632.5
406.5  620
406.4  630
406.3  607.5
406.2  568.75
406.1  646.25
406  542.5
405.9  601.25
405.8  606.25
405.7  620
405.6  582.5
405.5  615
405.4  611.25
405.3  610
405.2  615
405.1  595
405  581.25
404.9  628.75
404.8  672.5
404.7  672.5
404.6  588.75
404.5  663.75
404.4  686.25
404.3  601.25
404.2  653.75
404.1  643.75
404  656.25
403.9  632.5
403.8  611.25
403.7  688.75
403.6  623.75
403.5  697.5
403.4  640
403.3  648.75
403.2  703.75
403.1  655
403  671.25
402.9  667.5
402.8  718.75
402.7  660
402.6  633.75
402.5  623.75
402.4  637.5
402.3  630
402.2  633.75
402.1  610
402  662.5
401.9  673.75
401.8  705
401.7  588.75
401.6  607.5
401.5  686.25
401.4  640
401.3  610
401.2  586.25
401.1  626.25
401  661.25
400.9  612.5
400.8  590
400.7  607.5
400.6  577.5
400.5  630
400.4  633.75
400.3  646.25
400.2  621.25
400.1  645
400  595
399.9  612.5
399.8  583.75
399.7  662.5
399.6  623.75
399.5  610
399.4  587.5
399.3  623.75
399.2  648.75
399.1  640
399  592.5
398.9  596.25
398.8  626.25
398.7  586.25
398.6  575
398.5  617.5
398.4  608.75
398.3  638.75
398.2  610
398.1  636.25
398  611.25
397.9  588.75
397.8  603.75
397.7  583.75
397.6  586.25
397.5  588.75
397.4  563.75
397.3  571.25
397.2  605
397.1  660
397  550
396.9  597.5
396.8  618.75
396.7  536.25
396.6  616.25
396.5  602.5
396.4  588.75
396.3  591.25
396.2  578.75
396.1  616.25
396  596.25
395.9  551.25
395.8  616.25
395.7  603.75
395.6  620
395.5  556.25
395.4  558.75
395.3  598.75
395.2  567.5
395.1  596.25
395  606.25

# Region:            O1s
# Acquisition Date:  11/11/21 17:04:31 UTC
# Analysis Method:   XPS
# Analyzer:          Phoibos 100 R6
# Analyzer Lens:     LargeArea:1.5kV
# Analyzer Slit:     1:0.2x20\B:open
# Scan Mode:         FixedAnalyzerTransmission
# Curves/Scan:       1
# Values/Curve:      171
# Dwell Time:        0.8
# Excitation Energy: 1486.61
# Binding Energy:    545
# Pass Energy:       30
# Bias Voltage:      90
# Detector Voltage:  2600
# Eff. Workfunction: 4.309
# Source:            X-Ray Dummy
# Comment:           
#
# Cycle: 0
# Number of Scans: 4
#
# Cycle: 0, Curve: 0
# Acquisition Date: 11/11/21 17:04:31 UTC
#
# ColumnLabels: energy counts/s
#
545  970.9375
544.9  1003.75
544.8  979.6875
544.7  974.6875
544.6  962.1875
544.5  971.25
544.4  950.3125
544.3  959.375
544.2  974.0625
544.1  968.125
544  924.375
543.9  955
543.8  986.5625
543.7  953.4375
543.6  999.0625
543.5  952.8125
543.4  970.625
543.3  978.4375
543.2  981.25
543.1  940.9375
543  976.875
542.9  1001.25
542.8  978.75
542.7  998.75
542.6  1010.3125
542.5  1017.1875
542.4  1032.1875
542.3  1025.3125
542.2  1012.8125
542.1  1042.5
542  1087.1875
541.9  1040.3125
541.8  1080.9375
541.7  1080
541.6  1050
541.5  1108.4375
541.4  1130.3125
541.3  1098.125
541.2  1165.625
541.1  1151.875
541  1186.25
540.9  1185.3125
540.8  1216.5625
540.7  1256.875
540.6  1260.625
540.5  1268.4375
540.4  1320.3125
540.3  1388.125
540.2  1416.25
540.1  1485.9375
540  1499.6875
539.9  1576.25
539.8  1747.1875
539.7  1812.8125
539.6  1938.75
539.5  2112.1875
539.4  2291.875
539.3  2517.8125
539.2  2759.6875
539.1  3084.0625
539  3410.3125
538.9  3879.0625
538.8  4225
538.7  4692.5
538.6  5280.625
538.5  5820.625
538.4  6425
538.3  7054.6875
538.2  7681.5625
538.1  8335.9375
538  8836.5625
537.9  9436.5625
537.8  10020.938
537.7  10387.813
537.6  10818.438
537.5  10814.063
537.4  10821.875
537.3  10749.688
537.2  10512.813
537.1  10152.5
537  9606.5625
536.9  9167.5
536.8  8522.1875
536.7  7875.625
536.6  7067.8125
536.5  6555
536.4  5867.8125
536.3  5205.9375
536.2  4595
536.1  4070
536  3650.3125
535.9  3228.75
535.8  2850.9375
535.7  2557.5
535.6  2271.25
535.5  2113.75
535.4  1903.75
535.3  1725.3125
535.2  1616.875
535.1  1517.1875
535  1401.5625
534.9  1350.625
534.8  1286.875
534.7  1226.5625
534.6  1179.0625
534.5  1125.625
534.4  1146.5625
534.3  1090
534.2  1063.125
534.1  1028.125
534  1011.875
533.9  1013.4375
533.8  961.25
533.7  950.625
533.6  964.6875
533.5  916.875
533.4  959.6875
533.3  933.75
533.2  916.5625
533.1  875
533  919.6875
532.9  906.25
532.8  885.625
532.7  894.375
532.6  888.75
532.5  897.8125
532.4  885.625
532.3  886.5625
532.2  902.8125
532.1  884.0625
532  903.125
531.9  869.6875
531.8  893.4375
531.7  876.5625
531.6  862.5
531.5  863.4375
531.4  897.5
531.3  881.25
531.2  850.9375
531.1  855.3125
531  839.0625
530.9  840.625
530.8  853.75
530.7  840.9375
530.6  858.4375
530.5  835.9375
530.4  865
530.3  859.6875
530.2  827.5
530.1  829.6875
530  845.625
529.9  864.375
529.8  858.4375
529.7  879.375
529.6  888.75
529.5  866.5625
529.4  925
529.3  923.4375
529.2  922.1875
529.1  982.1875
529  1000.3125
528.9  1025
528.8  1070.9375
528.7  1095.625
528.6  1160
528.5  1206.5625
528.4  1221.25
528.3  1288.75
528.2  1300
528.1  1352.5
528  1394.6875

